# Pulseq sequence file
# Created by PyPulseq

[VERSION]
major 1
minor 3
revision 1post1

[DEFINITIONS]
Total duration 56.05148 
FOV 1 1 0.008 
Name gre 

# Format of blocks:
#  #  D RF  GX  GY  GZ ADC EXT
[BLOCKS]
 1  1  0   0   0   0  0  0
 2  0  1   0   0   0  0  0
 3  0  0   0   0   0  1  0
 4  2  0   0   0   0  0  0
 5  0  1   0   0   0  0  0
 6  0  0   0   0   0  1  0
 7  3  0   0   0   0  0  0
 8  0  1   0   0   0  0  0
 9  0  0   0   0   0  1  0
10  4  0   0   0   0  0  0
11  0  1   0   0   0  0  0
12  0  0   0   0   0  1  0
13  5  0   0   0   0  0  0
14  0  1   0   0   0  0  0
15  0  0   0   0   0  1  0
16  6  0   0   0   0  0  0
17  0  1   0   0   0  0  0
18  0  0   0   0   0  1  0
19  7  0   0   0   0  0  0
20  0  1   0   0   0  0  0
21  0  0   0   0   0  1  0
22  8  0   0   0   0  0  0
23  0  1   0   0   0  0  0
24  0  0   0   0   0  1  0
25  9  0   0   0   0  0  0
26  0  1   0   0   0  0  0
27  0  0   0   0   0  1  0
28 10  0   0   0   0  0  0
29  0  1   0   0   0  0  0
30  0  0   0   0   0  1  0
31 11  0   0   0   0  0  0
32  0  0   1   0   0  0  0

# Format of RF events:
# id amplitude mag_id phase_id delay freq phase
# ..        Hz   ....     ....    us   Hz   rad
[RF]
1      493.728 1 2 100 0 0

# Format of trapezoid gradients:
# id amplitude rise flat fall delay
# ..      Hz/m   us   us   us    us
[TRAP]
 1       500.25  10 19980  10   0

# Format of ADC events:
# id num dwell delay freq phase
# ..  ..    ns    us   Hz   rad
[ADC]
1 128 781250 20 0 0

# Format of delays:
# id delay (us)
[DELAYS]
1 9880
2 10000000
3 9000000
4 8000000
5 7000000
6 6000000
7 5000000
8 4000000
9 3000000
10 2000000
11 1000000

# Sequence Shapes
[SHAPES]

shape_id 1
num_samples 2020
0
0
0
1e-07
1e-07
1
2e-07
4e-07
4e-07
0
5e-07
7e-07
8e-07
1e-06
1.2e-06
1.4e-06
1.5e-06
1.9e-06
2e-06
2.3e-06
2.6e-06
2.9e-06
3.2e-06
3.5e-06
3.8e-06
4.2e-06
4.6e-06
4.9e-06
5.3e-06
5.8e-06
6.2e-06
6.6e-06
7.1e-06
7.6e-06
8.1e-06
8.5e-06
9.1e-06
9.7e-06
1.02e-05
1.07e-05
1.14e-05
1.2e-05
1.25e-05
1.32e-05
1.39e-05
1.45e-05
1.52e-05
1.59e-05
1.66e-05
1.74e-05
1.81e-05
1.88e-05
1.96e-05
2.04e-05
2.12e-05
2.2e-05
2.29e-05
2.36e-05
2.46e-05
2.54e-05
2.64e-05
2.72e-05
2.82e-05
2.91e-05
3e-05
3.1e-05
3.2e-05
3.3e-05
3.4e-05
3.5e-05
3.6e-05
3.71e-05
3.82e-05
3.92e-05
4.03e-05
4.15e-05
4.25e-05
4.37e-05
4.49e-05
4.59e-05
4.72e-05
4.84e-05
4.95e-05
5.07e-05
5.2e-05
5.32e-05
5.45e-05
5.57e-05
5.7e-05
5.83e-05
5.95e-05
6.09e-05
6.22e-05
6.35e-05
6.49e-05
6.62e-05
6.76e-05
6.9e-05
7.03e-05
7.18e-05
7.31e-05
7.46e-05
7.6e-05
7.74e-05
7.89e-05
8.03e-05
8.18e-05
8.33e-05
8.48e-05
8.62e-05
8.78e-05
8.92e-05
9.08e-05
9.23e-05
9.39e-05
9.54e-05
9.69e-05
9.86e-05
0.0001
0.0001017
0.0001032
0.0001048
0.0001065
0.000108
0.0001096
0.0001112
0.0001129
0.0001145
0.0001161
0.0001177
0.0001194
0.000121
0.0001227
0.0001243
0.000126
0.0001277
0.0001293
0.000131
0.0001326
0.0001344
0.000136
0.0001377
0.0001393
0.0001411
0.0001427
0.0001445
0.0001461
0.0001478
0.0001495
0.0001512
0.0001529
0.0001545
0.0001563
0.000158
0.0001596
0.0001614
0.000163
0.0001647
0.0001664
0.0001681
0.0001698
0.0001714
0.0001731
0.0001748
0.0001765
0.0001782
0.0001798
0.0001814
0.0001831
0.0001848
0.0001864
0.0001881
0.0001897
0.0001913
0.0001929
0.0001946
0.0001961
0.0001978
0.0001994
0.0002009
0.0002026
0.0002041
0.0002057
0.0002072
0.0002088
0.0002103
0.0002119
0.0002134
0.0002149
0.0002163
0.0002179
0.0002194
0.0002208
0.0002223
0.0002237
0.0002252
0.0002266
0.000228
0.0002293
0.0002308
0.0002321
0.0002335
0.0002349
0.0002361
0.0002375
0.0002388
0.00024
0.0002413
0.0002426
0.0002438
0.000245
0.0002462
0.0002474
0.0002486
0.0002497
0.0002508
0.000252
0.000253
0.0002542
0.0002551
0.0002563
0.0002572
0.0002582
0.0002592
0.0002602
0.0002611
0.000262
0.0002629
0.0002637
0.0002646
0.0002655
0.0002662
0.000267
0.0002678
0.0002685
0.0002692
0.0002699
0.0002706
0.0002711
0.0002718
0.0002724
0.0002729
0.0002735
0.000274
0.0002744
0.0002749
0.0002753
0.0002757
0.0002761
0.0002764
0.0002767
0.000277
0.0002773
0.0002775
0.0002777
0.0002778
0.000278
0.000278
0
0.0002782
0.0002782
2
0.0002781
0.000278
0.0002779
0.0002778
0.0002776
0.0002773
0.0002772
0.0002768
0.0002765
0.0002761
0.0002758
0.0002753
0.0002749
0.0002744
0.0002739
0.0002733
0.0002727
0.000272
0.0002714
0.0002706
0.0002699
0.0002692
0.0002683
0.0002674
0.0002665
0.0002656
0.0002646
0.0002636
0.0002626
0.0002614
0.0002603
0.0002591
0.0002579
0.0002567
0.0002553
0.000254
0.0002527
0.0002512
0.0002497
0.0002483
0.0002467
0.0002451
0.0002434
0.0002418
0.0002401
0.0002383
0.0002366
0.0002346
0.0002328
0.0002309
0.0002288
0.0002269
0.0002247
0.0002227
0.0002205
0.0002183
0.0002161
0.0002137
0.0002114
0.0002091
0.0002066
0.0002041
0.0002016
0.0001991
0.0001964
0.0001938
0.000191
0.0001883
0.0001855
0.0001827
0.0001797
0.0001768
0.0001738
0.0001708
0.0001677
0.0001645
0.0001614
0.0001581
0.0001548
0.0001515
0.0001482
0.0001447
0.0001412
0.0001377
0.0001341
0.0001305
0.0001268
0.0001231
0.0001193
0.0001155
0.0001117
0.0001077
0.0001037
9.97e-05
9.56e-05
9.16e-05
8.73e-05
8.31e-05
7.89e-05
7.45e-05
7.01e-05
6.57e-05
6.13e-05
5.67e-05
5.22e-05
4.75e-05
4.28e-05
3.81e-05
3.33e-05
2.85e-05
2.37e-05
1.86e-05
1.38e-05
8.6e-06
3.6e-06
-1.5e-06
-6.8e-06
-1.19e-05
-1.73e-05
-2.26e-05
-2.79e-05
-3.35e-05
-3.89e-05
-4.44e-05
-5.01e-05
-5.56e-05
-6.14e-05
-6.71e-05
-7.3e-05
-7.87e-05
-8.47e-05
-9.06e-05
-9.65e-05
-0.0001027
-0.0001087
-0.0001149
-0.0001211
-0.0001273
-0.0001336
-0.0001399
-0.0001464
-0.0001528
-0.0001593
-0.0001658
-0.0001724
-0.0001791
-0.0001857
-0.0001925
-0.0001993
-0.0002061
-0.0002131
-0.0002199
-0.0002269
-0.000234
-0.000241
-0.0002482
-0.0002553
-0.0002626
-0.0002698
-0.0002771
-0.0002845
-0.000292
-0.0002993
-0.0003069
-0.0003145
-0.000322
-0.0003297
-0.0003373
-0.0003451
-0.0003529
-0.0003607
-0.0003686
-0.0003764
-0.0003845
-0.0003924
-0.0004006
-0.0004085
-0.0004168
-0.0004249
-0.0004331
-0.0004414
-0.0004497
-0.0004581
-0.0004665
-0.0004749
-0.0004833
-0.0004919
-0.0005005
-0.000509
-0.0005177
-0.0005264
-0.0005351
-0.0005439
-0.0005527
-0.0005615
-0.0005704
-0.0005793
-0.0005883
-0.0005973
-0.0006063
-0.0006154
-0.0006245
-0.0006336
-0.0006429
-0.000652
-0.0006613
-0.0006706
-0.0006799
-0.0006893
-0.0006987
-0.0007081
-0.0007176
-0.0007271
-0.0007366
-0.0007462
-0.0007557
-0.0007654
-0.0007751
-0.0007848
-0.0007944
-0.0008043
-0.000814
-0.0008238
-0.0008337
-0.0008435
-0.0008535
-0.0008634
-0.0008733
-0.0008833
-0.0008934
-0.0009033
-0.0009135
-0.0009235
-0.0009337
-0.0009438
-0.0009539
-0.0009642
-0.0009743
-0.0009846
-0.0009949
0.0010051
0.0010155
0.0010258
0.0010361
0.0010465
0.0010569
0.0010673
0.0010777
0.0010881
0.0010987
0.0011091
0.0011196
0.0011301
0.0011407
0.0011512
0.0011618
0.0011723
0.001183
0.0011936
0.0012041
0.0012149
0.0012254
0.0012362
0.0012468
0.0012574
0.0012682
0.0012789
0.0012896
0.0013003
0.001311
0.0013218
0.0013326
0.0013432
0.0013541
0.0013648
0.0013756
0.0013863
0.0013971
0.001408
0.0014187
0.0014295
0.0014402
0.0014511
0.0014619
0.0014727
0.0014834
0.0014943
0.0015051
0.0015158
0.0015267
0.0015374
0.0015482
0.001559
0.0015698
0.0015805
0.0015913
0.0016021
0.0016128
0.0016235
0.0016343
0.0016451
0.0016557
0.0016665
0.0016772
0.0016878
0.0016986
0.0017092
0.0017198
0.0017305
0.0017412
0.0017517
0.0017624
0.0017729
0.0017835
0.0017941
0.0018046
0.0018151
0.0018256
0.0018361
0.0018466
0.001857
0.0018674
0.0018778
0.0018882
0.0018986
0.0019089
0.0019192
0.0019295
0.0019398
0.00195
0.0019602
0.0019704
0.0019805
0.0019907
0.0020008
0.0020109
0.0020209
0.0020309
0.002041
0.0020508
0.0020608
0.0020707
0.0020805
0.0020904
0.0021001
0.00211
0.0021196
0.0021293
0.002139
0.0021485
0.0021582
0.0021677
0.0021771
0.0021867
0.002196
0.0022055
0.0022147
0.0022241
0.0022333
0.0022426
0.0022516
0.0022609
0.0022699
0.0022789
0.0022879
0.0022969
0.0023057
0.0023146
0.0023234
0.0023322
0.0023408
0.0023495
0.0023581
0.0023667
0.0023751
0.0023837
0.002392
0.0024003
0.0024086
0.0024169
0.002425
0.0024332
0.0024413
0.0024492
0.0024572
0.0024651
0.002473
0.0024807
0.0024885
0.0024961
0.0025037
0.0025113
0.0025187
0.0025262
0.0025335
0.0025409
0.002548
0.0025552
0.0025624
0.0025693
0.0025764
0.0025832
0.0025901
0.0025968
0.0026036
0.0026102
0.0026168
0.0026233
0.0026297
0.002636
0.0026424
0.0026486
0.0026547
0.0026609
0.0026668
0.0026727
0.0026786
0.0026844
0.0026902
0.0026957
0.0027013
0.0027068
0.0027122
0.0027176
0.0027228
0.0027279
0.0027331
0.0027381
0.0027431
0.0027479
0.0027527
0.0027574
0.0027621
0.0027666
0.002771
0.0027754
0.0027798
0.0027839
0.0027881
0.0027921
0.0027961
0.0028
0.0028038
0.0028075
0.0028112
0.0028147
0.0028181
0.0028215
0.0028248
0.002828
0.0028311
0.0028341
0.0028371
0.0028399
0.0028427
0.0028453
0.002848
0.0028504
0.0028528
0.0028551
0.0028574
0.0028594
0.0028615
0.0028635
0.0028653
0.0028671
0.0028687
0.0028703
0.0028718
0.0028732
0.0028744
0.0028757
0.0028768
0.0028778
0.0028787
0.0028796
0.0028802
0.0028809
0.0028814
0.0028819
0.0028822
0.0028825
0.0028826
0.0028827
0.0028826
0.0028825
0.0028823
0.0028819
0.0028815
0.002881
0.0028803
0.0028796
0.0028788
0.0028778
0.0028769
0.0028757
0.0028745
0.0028731
0.0028718
0.0028702
0.0028686
0.0028669
0.0028651
0.0028632
0.0028611
0.002859
0.0028568
0.0028545
0.0028521
0.0028495
0.0028469
0.0028442
0.0028414
0.0028384
0.0028354
0.0028323
0.002829
0.0028258
0.0028223
0.0028187
0.0028152
0.0028114
0.0028075
0.0028036
0.0027996
0.0027954
0.0027912
0.0027869
0.0027824
0.0027779
0.0027732
0.0027684
0.0027636
0.0027587
0.0027536
0.0027485
0.0027432
0.0027378
0.0027324
0.0027268
0.0027212
0.0027154
0.0027095
0.0027036
0.0026975
0.0026914
0.0026851
0.0026787
0.0026722
0.0026657
0.0026591
0.0026522
0.0026455
0.0026384
0.0026314
0.0026242
0.002617
0.0026096
0.0026021
0.0025946
0.0025869
0.0025792
0.0025714
0.0025633
0.0025554
0.0025472
0.0025389
0.0025306
0.0025222
0.0025136
0.002505
0.0024963
0.0024875
0.0024786
0.0024695
0.0024605
0.0024512
0.0024419
0.0024326
0.0024231
0.0024134
0.0024039
0.002394
0.0023842
0.0023743
0.0023642
0.002354
0.0023439
0.0023335
0.0023231
0.0023127
0.002302
0.0022913
0.0022806
0.0022697
0.0022588
0.0022478
0.0022366
0.0022254
0.0022141
0.0022027
0.0021912
0.0021797
0.002168
0.0021563
0.0021445
0.0021326
0.0021206
0.0021085
0.0020964
0.0020841
0.0020718
0.0020594
0.0020469
0.0020344
0.0020217
0.002009
0.0019961
0.0019833
0.0019703
0.0019573
0.0019441
0.001931
0.0019177
0.0019043
0.0018909
0.0018773
0.0018638
0.0018502
0.0018364
0.0018226
0.0018087
0.0017947
0.0017808
0.0017666
0.0017525
0.0017382
0.001724
0.0017095
0.0016951
0.0016806
0.001666
0.0016514
0.0016366
0.0016219
0.001607
0.0015921
0.0015771
0.0015621
0.001547
0.0015318
0.0015165
0.0015013
0.0014859
0.0014705
0.001455
0.0014395
0.0014239
0.0014083
0.0013925
0.0013768
0.001361
0.0013451
0.0013291
0.0013132
0.0012971
0.001281
0.0012649
0.0012487
0.0012325
0.0012161
0.0011998
0.0011834
0.001167
0.0011504
0.001134
0.0011173
0.0011007
0.001084
0.0010673
0.0010506
0.0010337
0.0010169
0.0009999
0.0009831
0.000966
0.0009491
0.000932
0.0009149
0.0008978
0.0008806
0.0008634
0.0008461
0.0008289
0.0008116
0.0007943
0.0007768
0.0007595
0.000742
0.0007245
0.0007071
0.0006895
0.000672
0.0006544
0.0006367
0.0006192
0.0006015
0.0005837
0.0005661
0.0005483
0.0005306
0.0005128
0.000495
0.0004772
0.0004593
0.0004415
0.0004236
0.0004057
0.0003878
0.0003698
0.000352
0.0003339
0.000316
0.000298
0.00028
0.000262
0.0002439
0.000226
0.0002079
0.0001898
0.0001718
0.0001537
0.0001357
0.0001175
9.95e-05
8.15e-05
6.33e-05
4.52e-05
2.72e-05
9e-06
-9e-06
-2.72e-05
-4.52e-05
-6.33e-05
-8.15e-05
-9.95e-05
-0.0001175
-0.0001357
-0.0001537
-0.0001718
-0.0001898
-0.0002079
-0.000226
-0.0002439
-0.000262
-0.00028
-0.000298
-0.000316
-0.0003339
-0.000352
-0.0003698
-0.0003878
-0.0004057
-0.0004236
-0.0004415
-0.0004593
-0.0004772
-0.000495
-0.0005128
-0.0005306
-0.0005483
-0.0005661
-0.0005837
-0.0006015
-0.0006192
-0.0006367
-0.0006544
-0.000672
-0.0006895
-0.0007071
-0.0007245
-0.000742
-0.0007595
-0.0007768
-0.0007943
-0.0008116
-0.0008289
-0.0008461
-0.0008634
-0.0008806
-0.0008978
-0.0009149
-0.000932
-0.0009491
-0.000966
-0.0009831
-0.0009999
-0.0010169
-0.0010337
-0.0010506
-0.0010673
-0.001084
-0.0011007
-0.0011173
-0.001134
-0.0011504
-0.001167
-0.0011834
-0.0011998
-0.0012161
-0.0012325
-0.0012487
-0.0012649
-0.001281
-0.0012971
-0.0013132
-0.0013291
-0.0013451
-0.001361
-0.0013768
-0.0013925
-0.0014083
-0.0014239
-0.0014395
-0.001455
-0.0014705
-0.0014859
-0.0015013
-0.0015165
-0.0015318
-0.001547
-0.0015621
-0.0015771
-0.0015921
-0.001607
-0.0016219
-0.0016366
-0.0016514
-0.001666
-0.0016806
-0.0016951
-0.0017095
-0.001724
-0.0017382
-0.0017525
-0.0017666
-0.0017808
-0.0017947
-0.0018087
-0.0018226
-0.0018364
-0.0018502
-0.0018638
-0.0018773
-0.0018909
-0.0019043
-0.0019177
-0.001931
-0.0019441
-0.0019573
-0.0019703
-0.0019833
-0.0019961
-0.002009
-0.0020217
-0.0020344
-0.0020469
-0.0020594
-0.0020718
-0.0020841
-0.0020964
-0.0021085
-0.0021206
-0.0021326
-0.0021445
-0.0021563
-0.002168
-0.0021797
-0.0021912
-0.0022027
-0.0022141
-0.0022254
-0.0022366
-0.0022478
-0.0022588
-0.0022697
-0.0022806
-0.0022913
-0.002302
-0.0023127
-0.0023231
-0.0023335
-0.0023439
-0.002354
-0.0023642
-0.0023743
-0.0023842
-0.002394
-0.0024039
-0.0024134
-0.0024231
-0.0024326
-0.0024419
-0.0024512
-0.0024605
-0.0024695
-0.0024786
-0.0024875
-0.0024963
-0.002505
-0.0025136
-0.0025222
-0.0025306
-0.0025389
-0.0025472
-0.0025554
-0.0025633
-0.0025714
-0.0025792
-0.0025869
-0.0025946
-0.0026021
-0.0026096
-0.002617
-0.0026242
-0.0026314
-0.0026384
-0.0026455
-0.0026522
-0.0026591
-0.0026657
-0.0026722
-0.0026787
-0.0026851
-0.0026914
-0.0026975
-0.0027036
-0.0027095
-0.0027154
-0.0027212
-0.0027268
-0.0027324
-0.0027378
-0.0027432
-0.0027485
-0.0027536
-0.0027587
-0.0027636
-0.0027684
-0.0027732
-0.0027779
-0.0027824
-0.0027869
-0.0027912
-0.0027954
-0.0027996
-0.0028036
-0.0028075
-0.0028114
-0.0028152
-0.0028187
-0.0028223
-0.0028258
-0.002829
-0.0028323
-0.0028354
-0.0028384
-0.0028414
-0.0028442
-0.0028469
-0.0028495
-0.0028521
-0.0028545
-0.0028568
-0.002859
-0.0028611
-0.0028632
-0.0028651
-0.0028669
-0.0028686
-0.0028702
-0.0028718
-0.0028731
-0.0028745
-0.0028757
-0.0028769
-0.0028778
-0.0028788
-0.0028796
-0.0028803
-0.002881
-0.0028815
-0.0028819
-0.0028823
-0.0028825
-0.0028826
-0.0028827
-0.0028826
-0.0028825
-0.0028822
-0.0028819
-0.0028814
-0.0028809
-0.0028802
-0.0028796
-0.0028787
-0.0028778
-0.0028768
-0.0028757
-0.0028744
-0.0028732
-0.0028718
-0.0028703
-0.0028687
-0.0028671
-0.0028653
-0.0028635
-0.0028615
-0.0028594
-0.0028574
-0.0028551
-0.0028528
-0.0028504
-0.002848
-0.0028453
-0.0028427
-0.0028399
-0.0028371
-0.0028341
-0.0028311
-0.002828
-0.0028248
-0.0028215
-0.0028181
-0.0028147
-0.0028112
-0.0028075
-0.0028038
-0.0028
-0.0027961
-0.0027921
-0.0027881
-0.0027839
-0.0027798
-0.0027754
-0.002771
-0.0027666
-0.0027621
-0.0027574
-0.0027527
-0.0027479
-0.0027431
-0.0027381
-0.0027331
-0.0027279
-0.0027228
-0.0027176
-0.0027122
-0.0027068
-0.0027013
-0.0026957
-0.0026902
-0.0026844
-0.0026786
-0.0026727
-0.0026668
-0.0026609
-0.0026547
-0.0026486
-0.0026424
-0.002636
-0.0026297
-0.0026233
-0.0026168
-0.0026102
-0.0026036
-0.0025968
-0.0025901
-0.0025832
-0.0025764
-0.0025693
-0.0025624
-0.0025552
-0.002548
-0.0025409
-0.0025335
-0.0025262
-0.0025187
-0.0025113
-0.0025037
-0.0024961
-0.0024885
-0.0024807
-0.002473
-0.0024651
-0.0024572
-0.0024492
-0.0024413
-0.0024332
-0.002425
-0.0024169
-0.0024086
-0.0024003
-0.002392
-0.0023837
-0.0023751
-0.0023667
-0.0023581
-0.0023495
-0.0023408
-0.0023322
-0.0023234
-0.0023146
-0.0023057
-0.0022969
-0.0022879
-0.0022789
-0.0022699
-0.0022609
-0.0022516
-0.0022426
-0.0022333
-0.0022241
-0.0022147
-0.0022055
-0.002196
-0.0021867
-0.0021771
-0.0021677
-0.0021582
-0.0021485
-0.002139
-0.0021293
-0.0021196
-0.00211
-0.0021001
-0.0020904
-0.0020805
-0.0020707
-0.0020608
-0.0020508
-0.002041
-0.0020309
-0.0020209
-0.0020109
-0.0020008
-0.0019907
-0.0019805
-0.0019704
-0.0019602
-0.00195
-0.0019398
-0.0019295
-0.0019192
-0.0019089
-0.0018986
-0.0018882
-0.0018778
-0.0018674
-0.001857
-0.0018466
-0.0018361
-0.0018256
-0.0018151
-0.0018046
-0.0017941
-0.0017835
-0.0017729
-0.0017624
-0.0017517
-0.0017412
-0.0017305
-0.0017198
-0.0017092
-0.0016986
-0.0016878
-0.0016772
-0.0016665
-0.0016557
-0.0016451
-0.0016343
-0.0016235
-0.0016128
-0.0016021
-0.0015913
-0.0015805
-0.0015698
-0.001559
-0.0015482
-0.0015374
-0.0015267
-0.0015158
-0.0015051
-0.0014943
-0.0014834
-0.0014727
-0.0014619
-0.0014511
-0.0014402
-0.0014295
-0.0014187
-0.001408
-0.0013971
-0.0013863
-0.0013756
-0.0013648
-0.0013541
-0.0013432
-0.0013326
-0.0013218
-0.001311
-0.0013003
-0.0012896
-0.0012789
-0.0012682
-0.0012574
-0.0012468
-0.0012362
-0.0012254
-0.0012149
-0.0012041
-0.0011936
-0.001183
-0.0011723
-0.0011618
-0.0011512
-0.0011407
-0.0011301
-0.0011196
-0.0011091
-0.0010987
-0.0010881
-0.0010777
-0.0010673
-0.0010569
-0.0010465
-0.0010361
-0.0010258
-0.0010155
-0.0010051
0.0009949
0.0009846
0.0009743
0.0009642
0.0009539
0.0009438
0.0009337
0.0009235
0.0009135
0.0009033
0.0008934
0.0008833
0.0008733
0.0008634
0.0008535
0.0008435
0.0008337
0.0008238
0.000814
0.0008043
0.0007944
0.0007848
0.0007751
0.0007654
0.0007557
0.0007462
0.0007366
0.0007271
0.0007176
0.0007081
0.0006987
0.0006893
0.0006799
0.0006706
0.0006613
0.000652
0.0006429
0.0006336
0.0006245
0.0006154
0.0006063
0.0005973
0.0005883
0.0005793
0.0005704
0.0005615
0.0005527
0.0005439
0.0005351
0.0005264
0.0005177
0.000509
0.0005005
0.0004919
0.0004833
0.0004749
0.0004665
0.0004581
0.0004497
0.0004414
0.0004331
0.0004249
0.0004168
0.0004085
0.0004006
0.0003924
0.0003845
0.0003764
0.0003686
0.0003607
0.0003529
0.0003451
0.0003373
0.0003297
0.000322
0.0003145
0.0003069
0.0002993
0.000292
0.0002845
0.0002771
0.0002698
0.0002626
0.0002553
0.0002482
0.000241
0.000234
0.0002269
0.0002199
0.0002131
0.0002061
0.0001993
0.0001925
0.0001857
0.0001791
0.0001724
0.0001658
0.0001593
0.0001528
0.0001464
0.0001399
0.0001336
0.0001273
0.0001211
0.0001149
0.0001087
0.0001027
9.65e-05
9.06e-05
8.47e-05
7.87e-05
7.3e-05
6.71e-05
6.14e-05
5.56e-05
5.01e-05
4.44e-05
3.89e-05
3.35e-05
2.79e-05
2.26e-05
1.73e-05
1.19e-05
6.8e-06
1.5e-06
-3.6e-06
-8.6e-06
-1.38e-05
-1.86e-05
-2.37e-05
-2.85e-05
-3.33e-05
-3.81e-05
-4.28e-05
-4.75e-05
-5.22e-05
-5.67e-05
-6.13e-05
-6.57e-05
-7.01e-05
-7.45e-05
-7.89e-05
-8.31e-05
-8.73e-05
-9.16e-05
-9.56e-05
-9.97e-05
-0.0001037
-0.0001077
-0.0001117
-0.0001155
-0.0001193
-0.0001231
-0.0001268
-0.0001305
-0.0001341
-0.0001377
-0.0001412
-0.0001447
-0.0001482
-0.0001515
-0.0001548
-0.0001581
-0.0001614
-0.0001645
-0.0001677
-0.0001708
-0.0001738
-0.0001768
-0.0001797
-0.0001827
-0.0001855
-0.0001883
-0.000191
-0.0001938
-0.0001964
-0.0001991
-0.0002016
-0.0002041
-0.0002066
-0.0002091
-0.0002114
-0.0002137
-0.0002161
-0.0002183
-0.0002205
-0.0002227
-0.0002247
-0.0002269
-0.0002288
-0.0002309
-0.0002328
-0.0002346
-0.0002366
-0.0002383
-0.0002401
-0.0002418
-0.0002434
-0.0002451
-0.0002467
-0.0002483
-0.0002497
-0.0002512
-0.0002527
-0.000254
-0.0002553
-0.0002567
-0.0002579
-0.0002591
-0.0002603
-0.0002614
-0.0002626
-0.0002636
-0.0002646
-0.0002656
-0.0002665
-0.0002674
-0.0002683
-0.0002692
-0.0002699
-0.0002706
-0.0002714
-0.000272
-0.0002727
-0.0002733
-0.0002739
-0.0002744
-0.0002749
-0.0002753
-0.0002758
-0.0002761
-0.0002765
-0.0002768
-0.0002772
-0.0002773
-0.0002776
-0.0002778
-0.0002779
-0.000278
-0.0002781
-0.0002782
-0.0002782
2
-0.000278
-0.000278
0
-0.0002778
-0.0002777
-0.0002775
-0.0002773
-0.000277
-0.0002767
-0.0002764
-0.0002761
-0.0002757
-0.0002753
-0.0002749
-0.0002744
-0.000274
-0.0002735
-0.0002729
-0.0002724
-0.0002718
-0.0002711
-0.0002706
-0.0002699
-0.0002692
-0.0002685
-0.0002678
-0.000267
-0.0002662
-0.0002655
-0.0002646
-0.0002637
-0.0002629
-0.000262
-0.0002611
-0.0002602
-0.0002592
-0.0002582
-0.0002572
-0.0002563
-0.0002551
-0.0002542
-0.000253
-0.000252
-0.0002508
-0.0002497
-0.0002486
-0.0002474
-0.0002462
-0.000245
-0.0002438
-0.0002426
-0.0002413
-0.00024
-0.0002388
-0.0002375
-0.0002361
-0.0002349
-0.0002335
-0.0002321
-0.0002308
-0.0002293
-0.000228
-0.0002266
-0.0002252
-0.0002237
-0.0002223
-0.0002208
-0.0002194
-0.0002179
-0.0002163
-0.0002149
-0.0002134
-0.0002119
-0.0002103
-0.0002088
-0.0002072
-0.0002057
-0.0002041
-0.0002026
-0.0002009
-0.0001994
-0.0001978
-0.0001961
-0.0001946
-0.0001929
-0.0001913
-0.0001897
-0.0001881
-0.0001864
-0.0001848
-0.0001831
-0.0001814
-0.0001798
-0.0001782
-0.0001765
-0.0001748
-0.0001731
-0.0001714
-0.0001698
-0.0001681
-0.0001664
-0.0001647
-0.000163
-0.0001614
-0.0001596
-0.000158
-0.0001563
-0.0001545
-0.0001529
-0.0001512
-0.0001495
-0.0001478
-0.0001461
-0.0001445
-0.0001427
-0.0001411
-0.0001393
-0.0001377
-0.000136
-0.0001344
-0.0001326
-0.000131
-0.0001293
-0.0001277
-0.000126
-0.0001243
-0.0001227
-0.000121
-0.0001194
-0.0001177
-0.0001161
-0.0001145
-0.0001129
-0.0001112
-0.0001096
-0.000108
-0.0001065
-0.0001048
-0.0001032
-0.0001017
-0.0001
-9.86e-05
-9.69e-05
-9.54e-05
-9.39e-05
-9.23e-05
-9.08e-05
-8.92e-05
-8.78e-05
-8.62e-05
-8.48e-05
-8.33e-05
-8.18e-05
-8.03e-05
-7.89e-05
-7.74e-05
-7.6e-05
-7.46e-05
-7.31e-05
-7.18e-05
-7.03e-05
-6.9e-05
-6.76e-05
-6.62e-05
-6.49e-05
-6.35e-05
-6.22e-05
-6.09e-05
-5.95e-05
-5.83e-05
-5.7e-05
-5.57e-05
-5.45e-05
-5.32e-05
-5.2e-05
-5.07e-05
-4.95e-05
-4.84e-05
-4.72e-05
-4.59e-05
-4.49e-05
-4.37e-05
-4.25e-05
-4.15e-05
-4.03e-05
-3.92e-05
-3.82e-05
-3.71e-05
-3.6e-05
-3.5e-05
-3.4e-05
-3.3e-05
-3.2e-05
-3.1e-05
-3e-05
-2.91e-05
-2.82e-05
-2.72e-05
-2.64e-05
-2.54e-05
-2.46e-05
-2.36e-05
-2.29e-05
-2.2e-05
-2.12e-05
-2.04e-05
-1.96e-05
-1.88e-05
-1.81e-05
-1.74e-05
-1.66e-05
-1.59e-05
-1.52e-05
-1.45e-05
-1.39e-05
-1.32e-05
-1.25e-05
-1.2e-05
-1.14e-05
-1.07e-05
-1.02e-05
-9.7e-06
-9.1e-06
-8.5e-06
-8.1e-06
-7.6e-06
-7.1e-06
-6.6e-06
-6.2e-06
-5.8e-06
-5.3e-06
-4.9e-06
-4.6e-06
-4.2e-06
-3.8e-06
-3.5e-06
-3.2e-06
-2.9e-06
-2.6e-06
-2.3e-06
-2e-06
-1.9e-06
-1.5e-06
-1.4e-06
-1.2e-06
-1e-06
-8e-07
-7e-07
-5e-07
-4e-07
-4e-07
0
-2e-07
-1e-07
-1e-07
1
0
0
20

shape_id 2
num_samples 2020
0.5
0
0
496
-0.5
0
0
998
0.5
0
0
496
-0.5
0
0
18

