# Pulseq sequence file
# Created by PyPulseq

[VERSION]
major 1
minor 3
revision 1post1

[DEFINITIONS]
Total duration 1.41724 
FOV 1 1 0.008 
Name gre 

# Format of blocks:
#  #  D RF  GX  GY  GZ ADC EXT
[BLOCKS]
  1  0  1   0   0   0  0  0
  2  0  0   1   2   0  0  0
  3  0  0   3   0   0  1  0
  4  0  0   4   5   0  0  0
  5  1  0   0   0   0  0  0
  6  0  2   0   0   0  0  0
  7  0  0   1   6   0  0  0
  8  0  0   3   0   0  2  0
  9  0  0   4   7   0  0  0
 10  1  0   0   0   0  0  0
 11  0  3   0   0   0  0  0
 12  0  0   1   8   0  0  0
 13  0  0   3   0   0  3  0
 14  0  0   4   9   0  0  0
 15  1  0   0   0   0  0  0
 16  0  4   0   0   0  0  0
 17  0  0   1   9   0  0  0
 18  0  0   3   0   0  4  0
 19  0  0   4   8   0  0  0
 20  1  0   0   0   0  0  0
 21  0  5   0   0   0  0  0
 22  0  0   1  10   0  0  0
 23  0  0   3   0   0  5  0
 24  0  0   4  11   0  0  0
 25  1  0   0   0   0  0  0
 26  0  6   0   0   0  0  0
 27  0  0   1  12   0  0  0
 28  0  0   3   0   0  6  0
 29  0  0   4  13   0  0  0
 30  1  0   0   0   0  0  0
 31  0  7   0   0   0  0  0
 32  0  0   1  14   0  0  0
 33  0  0   3   0   0  7  0
 34  0  0   4  15   0  0  0
 35  1  0   0   0   0  0  0
 36  0  8   0   0   0  0  0
 37  0  0   1  16   0  0  0
 38  0  0   3   0   0  8  0
 39  0  0   4  17   0  0  0
 40  1  0   0   0   0  0  0
 41  0  9   0   0   0  0  0
 42  0  0   1  18   0  0  0
 43  0  0   3   0   0  9  0
 44  0  0   4  19   0  0  0
 45  1  0   0   0   0  0  0
 46  0 10   0   0   0  0  0
 47  0  0   1  20   0  0  0
 48  0  0   3   0   0 10  0
 49  0  0   4  21   0  0  0
 50  1  0   0   0   0  0  0
 51  0  6   0   0   0  0  0
 52  0  0   1  22   0  0  0
 53  0  0   3   0   0  6  0
 54  0  0   4  23   0  0  0
 55  1  0   0   0   0  0  0
 56  0 11   0   0   0  0  0
 57  0  0   1  24   0  0  0
 58  0  0   3   0   0 11  0
 59  0  0   4  25   0  0  0
 60  1  0   0   0   0  0  0
 61  0 12   0   0   0  0  0
 62  0  0   1  26   0  0  0
 63  0  0   3   0   0 12  0
 64  0  0   4  27   0  0  0
 65  1  0   0   0   0  0  0
 66  0 13   0   0   0  0  0
 67  0  0   1  28   0  0  0
 68  0  0   3   0   0 13  0
 69  0  0   4  29   0  0  0
 70  1  0   0   0   0  0  0
 71  0 14   0   0   0  0  0
 72  0  0   1  30   0  0  0
 73  0  0   3   0   0 14  0
 74  0  0   4  31   0  0  0
 75  1  0   0   0   0  0  0
 76  0  1   0   0   0  0  0
 77  0  0   1  32   0  0  0
 78  0  0   3   0   0  1  0
 79  0  0   4  33   0  0  0
 80  1  0   0   0   0  0  0
 81  0 15   0   0   0  0  0
 82  0  0   1  34   0  0  0
 83  0  0   3   0   0 15  0
 84  0  0   4  35   0  0  0
 85  1  0   0   0   0  0  0
 86  0 16   0   0   0  0  0
 87  0  0   1  21   0  0  0
 88  0  0   3   0   0 16  0
 89  0  0   4  20   0  0  0
 90  1  0   0   0   0  0  0
 91  0 13   0   0   0  0  0
 92  0  0   1  36   0  0  0
 93  0  0   3   0   0 13  0
 94  0  0   4  37   0  0  0
 95  1  0   0   0   0  0  0
 96  0 17   0   0   0  0  0
 97  0  0   1  31   0  0  0
 98  0  0   3   0   0 17  0
 99  0  0   4  30   0  0  0
100  1  0   0   0   0  0  0
101  0  5   0   0   0  0  0
102  0  0   1  33   0  0  0
103  0  0   3   0   0  5  0
104  0  0   4  32   0  0  0
105  1  0   0   0   0  0  0
106  0 18   0   0   0  0  0
107  0  0   1  38   0  0  0
108  0  0   3   0   0 18  0
109  0  0   4  39   0  0  0
110  1  0   0   0   0  0  0
111  0 19   0   0   0  0  0
112  0  0   1  40   0  0  0
113  0  0   3   0   0 19  0
114  0  0   4  41   0  0  0
115  1  0   0   0   0  0  0
116  0  9   0   0   0  0  0
117  0  0   1  42   0  0  0
118  0  0   3   0   0  9  0
119  0  0   4  43   0  0  0
120  1  0   0   0   0  0  0
121  0 20   0   0   0  0  0
122  0  0   1  15   0  0  0
123  0  0   3   0   0 20  0
124  0  0   4  14   0  0  0
125  1  0   0   0   0  0  0
126  0 10   0   0   0  0  0
127  0  0   1  44   0  0  0
128  0  0   3   0   0 10  0
129  0  0   4  45   0  0  0
130  1  0   0   0   0  0  0
131  0 18   0   0   0  0  0
132  0  0   1  46   0  0  0
133  0  0   3   0   0 18  0
134  0  0   4  47   0  0  0
135  1  0   0   0   0  0  0
136  0 21   0   0   0  0  0
137  0  0   1  48   0  0  0
138  0  0   3   0   0 21  0
139  0  0   4  49   0  0  0
140  1  0   0   0   0  0  0
141  0  4   0   0   0  0  0
142  0  0   1  50   0  0  0
143  0  0   3   0   0  4  0
144  0  0   4  51   0  0  0
145  1  0   0   0   0  0  0
146  0 22   0   0   0  0  0
147  0  0   1  25   0  0  0
148  0  0   3   0   0 22  0
149  0  0   4  24   0  0  0
150  1  0   0   0   0  0  0
151  0 14   0   0   0  0  0
152  0  0   1  39   0  0  0
153  0  0   3   0   0 14  0
154  0  0   4  38   0  0  0
155  1  0   0   0   0  0  0
156  0 15   0   0   0  0  0
157  0  0   1   7   0  0  0
158  0  0   3   0   0 15  0
159  0  0   4   6   0  0  0
160  1  0   0   0   0  0  0
161  0 23   0   0   0  0  0
162  0  0   1  52   0  0  0
163  0  0   3   0   0 23  0
164  0  0   4  53   0  0  0
165  1  0   0   0   0  0  0
166  0  2   0   0   0  0  0
167  0  0   1  54   0  0  0
168  0  0   3   0   0  2  0
169  0  0   4  55   0  0  0
170  1  0   0   0   0  0  0
171  0 22   0   0   0  0  0
172  0  0   1  11   0  0  0
173  0  0   3   0   0 22  0
174  0  0   4  10   0  0  0
175  1  0   0   0   0  0  0
176  0 17   0   0   0  0  0
177  0  0   1  51   0  0  0
178  0  0   3   0   0 17  0
179  0  0   4  50   0  0  0
180  1  0   0   0   0  0  0
181  0 11   0   0   0  0  0
182  0  0   1  17   0  0  0
183  0  0   3   0   0 11  0
184  0  0   4  16   0  0  0
185  1  0   0   0   0  0  0
186  0 24   0   0   0  0  0
187  0  0   1  23   0  0  0
188  0  0   3   0   0 24  0
189  0  0   4  22   0  0  0
190  1  0   0   0   0  0  0
191  0  7   0   0   0  0  0
192  0  0   1  53   0  0  0
193  0  0   3   0   0  7  0
194  0  0   4  52   0  0  0
195  1  0   0   0   0  0  0
196  0 20   0   0   0  0  0
197  0  0   1  45   0  0  0
198  0  0   3   0   0 20  0
199  0  0   4  44   0  0  0
200  1  0   0   0   0  0  0
201  0 20   0   0   0  0  0
202  0  0   1  55   0  0  0
203  0  0   3   0   0 20  0
204  0  0   4  54   0  0  0
205  1  0   0   0   0  0  0
206  0  7   0   0   0  0  0
207  0  0   1  56   0  0  0
208  0  0   3   0   0  7  0
209  0  0   4  57   0  0  0
210  1  0   0   0   0  0  0
211  0 24   0   0   0  0  0
212  0  0   1  58   0  0  0
213  0  0   3   0   0 24  0
214  0  0   4  59   0  0  0
215  1  0   0   0   0  0  0
216  0 11   0   0   0  0  0
217  0  0   1  43   0  0  0
218  0  0   3   0   0 11  0
219  0  0   4  42   0  0  0
220  1  0   0   0   0  0  0
221  0 17   0   0   0  0  0
222  0  0   1  60   0  0  0
223  0  0   3   0   0 17  0
224  0  0   4  60   0  0  0
225  1  0   0   0   0  0  0
226  0 22   0   0   0  0  0
227  0  0   1  61   0  0  0
228  0  0   3   0   0 22  0
229  0  0   4  62   0  0  0
230  1  0   0   0   0  0  0
231  0  2   0   0   0  0  0
232  0  0   1  63   0  0  0
233  0  0   3   0   0  2  0
234  0  0   4  64   0  0  0
235  1  0   0   0   0  0  0
236  0 23   0   0   0  0  0
237  0  0   1  49   0  0  0
238  0  0   3   0   0 23  0
239  0  0   4  48   0  0  0
240  1  0   0   0   0  0  0
241  0 15   0   0   0  0  0
242  0  0   1  64   0  0  0
243  0  0   3   0   0 15  0
244  0  0   4  63   0  0  0
245  1  0   0   0   0  0  0
246  0 14   0   0   0  0  0
247  0  0   1  65   0  0  0
248  0  0   3   0   0 14  0
249  0  0   4  66   0  0  0
250  1  0   0   0   0  0  0
251  0 22   0   0   0  0  0
252  0  0   1  19   0  0  0
253  0  0   3   0   0 22  0
254  0  0   4  18   0  0  0
255  1  0   0   0   0  0  0
256  0  4   0   0   0  0  0
257  0  0   1  37   0  0  0
258  0  0   3   0   0  4  0
259  0  0   4  36   0  0  0
260  1  0   0   0   0  0  0
261  0 21   0   0   0  0  0
262  0  0   1  35   0  0  0
263  0  0   3   0   0 21  0
264  0  0   4  34   0  0  0
265  1  0   0   0   0  0  0
266  0 18   0   0   0  0  0
267  0  0   1  57   0  0  0
268  0  0   3   0   0 18  0
269  0  0   4  56   0  0  0
270  1  0   0   0   0  0  0
271  0 10   0   0   0  0  0
272  0  0   1  59   0  0  0
273  0  0   3   0   0 10  0
274  0  0   4  58   0  0  0
275  1  0   0   0   0  0  0
276  0 20   0   0   0  0  0
277  0  0   1  13   0  0  0
278  0  0   3   0   0 20  0
279  0  0   4  12   0  0  0
280  1  0   0   0   0  0  0
281  0  9   0   0   0  0  0
282  0  0   1  41   0  0  0
283  0  0   3   0   0  9  0
284  0  0   4  40   0  0  0
285  1  0   0   0   0  0  0
286  0 19   0   0   0  0  0
287  0  0   1  66   0  0  0
288  0  0   3   0   0 19  0
289  0  0   4  65   0  0  0
290  1  0   0   0   0  0  0
291  0 18   0   0   0  0  0
292  0  0   1  47   0  0  0
293  0  0   3   0   0 18  0
294  0  0   4  46   0  0  0
295  1  0   0   0   0  0  0
296  0  5   0   0   0  0  0
297  0  0   1  27   0  0  0
298  0  0   3   0   0  5  0
299  0  0   4  26   0  0  0
300  1  0   0   0   0  0  0
301  0 17   0   0   0  0  0
302  0  0   1  29   0  0  0
303  0  0   3   0   0 17  0
304  0  0   4  28   0  0  0
305  1  0   0   0   0  0  0
306  0 13   0   0   0  0  0
307  0  0   1  67   0  0  0
308  0  0   3   0   0 13  0
309  0  0   4  68   0  0  0
310  1  0   0   0   0  0  0
311  0 16   0   0   0  0  0
312  0  0   1   5   0  0  0
313  0  0   3   0   0 16  0
314  0  0   4   2   0  0  0
315  1  0   0   0   0  0  0
316  0 15   0   0   0  0  0
317  0  0   1  68   0  0  0
318  0  0   3   0   0 15  0
319  0  0   4  67   0  0  0

# Format of RF events:
# id amplitude mag_id phase_id delay freq phase
# ..        Hz   ....     ....    us   Hz   rad
[RF]
1      54.8587 1 2 100 0 0
2      54.8587 1 2 100 0 2.04204
3      54.8587 1 2 100 0 6.12611
4      54.8587 1 2 100 0 5.96903
5      54.8587 1 2 100 0 1.5708
6      54.8587 1 2 100 0 5.49779
7      54.8587 1 2 100 0 5.18363
8      54.8587 1 2 100 0 0.628319
9      54.8587 1 2 100 0 4.39823
10      54.8587 1 2 100 0 3.92699
11      54.8587 1 2 100 0 2.82743
12      54.8587 1 2 100 0 2.19911
13      54.8587 1 2 100 0 3.61283
14      54.8587 1 2 100 0 0.785398
15      54.8587 1 2 100 0 1.25664
16      54.8587 1 2 100 0 4.55531
17      54.8587 1 2 100 0 4.71239
18      54.8587 1 2 100 0 0.471239
19      54.8587 1 2 100 0 1.41372
20      54.8587 1 2 100 0 3.14159
21      54.8587 1 2 100 0 5.34071
22      54.8587 1 2 100 0 2.35619
23      54.8587 1 2 100 0 3.76991
24      54.8587 1 2 100 0 2.98451

# Format of trapezoid gradients:
# id amplitude rise flat fall delay
# ..      Hz/m   us   us   us    us
[TRAP]
 1     -6419.24  10 4980  10   0
 2     -4809.62  10 4980  10   0
 3         6400  10 10000  10   0
 4      48289.4  10 1980  10   0
 5      4809.62  10 4980  10   0
 6      2004.01  10 4980  10   0
 7     -2004.01  10 4980  10   0
 8     -200.401  10 4980  10   0
 9      200.401  10 4980  10   0
10      4609.22  10 4980  10   0
11     -4609.22  10 4980  10   0
12      2805.61  10 4980  10   0
13     -2805.61  10 4980  10   0
14      3607.21  10 4980  10   0
15     -3607.21  10 4980  10   0
16      -1202.4  10 4980  10   0
17       1202.4  10 4980  10   0
18      1803.61  10 4980  10   0
19     -1803.61  10 4980  10   0
20     -5611.22  10 4980  10   0
21      5611.22  10 4980  10   0
22      6212.43  10 4980  10   0
23     -6212.43  10 4980  10   0
24      400.802  10 4980  10   0
25     -400.802  10 4980  10   0
26      6012.02  10 4980  10   0
27     -6012.02  10 4980  10   0
28      801.603  10 4980  10   0
29     -801.603  10 4980  10   0
30     -5210.42  10 4980  10   0
31      5210.42  10 4980  10   0
32      3807.62  10 4980  10   0
33     -3807.62  10 4980  10   0
34      601.202  10 4980  10   0
35     -601.202  10 4980  10   0
36      5410.82  10 4980  10   0
37     -5410.82  10 4980  10   0
38      1603.21  10 4980  10   0
39     -1603.21  10 4980  10   0
40     -4408.82  10 4980  10   0
41      4408.82  10 4980  10   0
42      3406.81  10 4980  10   0
43     -3406.81  10 4980  10   0
44      4008.02  10 4980  10   0
45     -4008.02  10 4980  10   0
46         1002  10 4980  10   0
47        -1002  10 4980  10   0
48      5010.02  10 4980  10   0
49     -5010.02  10 4980  10   0
50     -4208.42  10 4980  10   0
51      4208.42  10 4980  10   0
52     -5811.62  10 4980  10   0
53      5811.62  10 4980  10   0
54     -1402.81  10 4980  10   0
55      1402.81  10 4980  10   0
56      2605.21  10 4980  10   0
57     -2605.21  10 4980  10   0
58     -3206.41  10 4980  10   0
59      3206.41  10 4980  10   0
60            0  10 4980  10   0
61     -6412.83  10 4980  10   0
62      6412.83  10 4980  10   0
63      2404.81  10 4980  10   0
64     -2404.81  10 4980  10   0
65     -2204.41  10 4980  10   0
66      2204.41  10 4980  10   0
67      3006.01  10 4980  10   0
68     -3006.01  10 4980  10   0

# Format of ADC events:
# id num dwell delay freq phase
# ..  ..    ns    us   Hz   rad
[ADC]
1 64 156250 20 0 0
2 64 156250 20 0 2.04204
3 64 156250 20 0 6.12611
4 64 156250 20 0 5.96903
5 64 156250 20 0 1.5708
6 64 156250 20 0 5.49779
7 64 156250 20 0 5.18363
8 64 156250 20 0 0.628319
9 64 156250 20 0 4.39823
10 64 156250 20 0 3.92699
11 64 156250 20 0 2.82743
12 64 156250 20 0 2.19911
13 64 156250 20 0 3.61283
14 64 156250 20 0 0.785398
15 64 156250 20 0 1.25664
16 64 156250 20 0 4.55531
17 64 156250 20 0 4.71239
18 64 156250 20 0 0.471239
19 64 156250 20 0 1.41372
20 64 156250 20 0 3.14159
21 64 156250 20 0 5.34071
22 64 156250 20 0 2.35619
23 64 156250 20 0 3.76991
24 64 156250 20 0 2.98451

# Format of delays:
# id delay (us)
[DELAYS]
1 1000

# Sequence Shapes
[SHAPES]

shape_id 1
num_samples 1020
0
2e-07
3e-07
8e-07
1.2e-06
1.8e-06
2.6e-06
3.4e-06
4.3e-06
5.5e-06
6.7e-06
8e-06
9.5e-06
1.11e-05
1.28e-05
1.47e-05
1.66e-05
1.88e-05
2.09e-05
2.34e-05
2.57e-05
2.84e-05
3.11e-05
3.4e-05
3.69e-05
4e-05
4.32e-05
4.65e-05
5e-05
5.36e-05
5.73e-05
6.1e-05
6.5e-05
6.9e-05
7.31e-05
7.74e-05
8.18e-05
8.62e-05
9.08e-05
9.56e-05
0.0001002
0.0001052
0.0001102
0.0001153
0.0001204
0.0001257
0.0001311
0.0001366
0.0001421
0.0001477
0.0001534
0.0001592
0.0001651
0.000171
0.000177
0.0001831
0.0001893
0.0001955
0.0002017
0.000208
0.0002145
0.0002208
0.0002274
0.0002338
0.0002404
0.000247
0.0002537
0.0002603
0.000267
0.0002737
0.0002804
0.0002872
0.0002939
0.0003007
0.0003074
0.0003143
0.000321
0.0003277
0.0003345
0.0003412
0.0003479
0.0003547
0.0003612
0.0003679
0.0003745
0.000381
0.0003875
0.0003939
0.0004003
0.0004067
0.0004129
0.0004191
0.0004253
0.0004312
0.0004373
0.0004431
0.0004489
0.0004546
0.0004601
0.0004656
0.000471
0.0004763
0.0004813
0.0004864
0.0004912
0.000496
0.0005005
0.000505
0.0005093
0.0005135
0.0005174
0.0005213
0.0005249
0.0005283
0.0005317
0.0005348
0.0005377
0.0005405
0.0005429
0.0005453
0.0005475
0.0005493
0.000551
0.0005525
0.0005537
0.0005548
0.0005555
0.000556
0.0005564
0.0005564
0
0.0005561
0.0005557
0.0005549
0.000554
0.0005526
0.0005511
0.0005493
0.0005472
0.0005447
0.000542
0.0005391
0.0005357
0.0005321
0.0005282
0.000524
0.0005194
0.0005146
0.0005093
0.0005039
0.000498
0.0004918
0.0004852
0.0004784
0.0004712
0.0004637
0.0004557
0.0004474
0.0004388
0.0004298
0.0004205
0.0004107
0.0004007
0.0003902
0.0003793
0.0003682
0.0003565
0.0003446
0.0003322
0.0003195
0.0003063
0.0002929
0.0002789
0.0002646
0.0002499
0.0002348
0.0002194
0.0002034
0.0001872
0.0001704
0.0001534
0.0001358
0.000118
9.97e-05
8.09e-05
6.18e-05
4.23e-05
2.24e-05
2.1e-06
-1.87e-05
-3.99e-05
-6.14e-05
-8.33e-05
-0.0001057
-0.0001285
-0.0001517
-0.0001753
-0.0001992
-0.0002236
-0.0002484
-0.0002735
-0.0002992
-0.0003251
-0.0003515
-0.0003782
-0.0004054
-0.000433
-0.0004609
-0.0004892
-0.0005179
-0.0005469
-0.0005765
-0.0006062
-0.0006365
-0.000667
-0.000698
-0.0007293
-0.0007609
-0.000793
-0.0008253
-0.000858
-0.0008911
-0.0009246
-0.0009582
-0.0009924
-0.0010267
-0.0010615
-0.0010966
-0.0011319
-0.0011676
-0.0012036
-0.0012399
-0.0012765
-0.0013133
-0.0013505
-0.001388
-0.0014257
-0.0014637
-0.0015019
-0.0015405
-0.0015792
-0.0016183
-0.0016575
-0.001697
-0.0017367
-0.0017767
-0.0018168
-0.0018572
-0.0018977
-0.0019385
-0.0019795
0.0020206
0.0020619
0.0021034
0.002145
0.0021868
0.0022287
0.0022708
0.002313
0.0023553
0.0023977
0.0024403
0.002483
0.0025256
0.0025685
0.0026113
0.0026544
0.0026973
0.0027404
0.0027834
0.0028267
0.0028697
0.002913
0.0029561
0.0029994
0.0030425
0.0030856
0.0031288
0.0031718
0.0032149
0.0032578
0.0033008
0.0033437
0.0033864
0.003429
0.0034717
0.0035141
0.0035564
0.0035987
0.0036407
0.0036827
0.0037244
0.003766
0.0038075
0.0038487
0.0038898
0.0039306
0.0039712
0.0040117
0.0040518
0.0040918
0.0041315
0.0041709
0.0042101
0.0042489
0.0042875
0.0043259
0.0043638
0.0044015
0.0044388
0.0044759
0.0045125
0.0045488
0.0045848
0.0046203
0.0046556
0.0046903
0.0047248
0.0047588
0.0047923
0.0048255
0.0048582
0.0048905
0.0049223
0.0049537
0.0049846
0.005015
0.0050449
0.0050744
0.0051032
0.0051317
0.0051596
0.0051869
0.0052138
0.0052401
0.0052657
0.005291
0.0053156
0.0053395
0.005363
0.0053859
0.0054081
0.0054298
0.0054507
0.0054712
0.005491
0.0055101
0.0055287
0.0055464
0.0055637
0.0055802
0.0055961
0.0056113
0.0056259
0.0056396
0.0056528
0.0056652
0.005677
0.005688
0.0056984
0.0057079
0.0057168
0.005725
0.0057324
0.005739
0.005745
0.0057501
0.0057546
0.0057583
0.0057611
0.0057633
0.0057647
0.0057653
0.0057651
0.0057642
0.0057625
0.0057599
0.0057566
0.0057526
0.0057476
0.005742
0.0057355
0.0057283
0.0057201
0.0057113
0.0057016
0.0056911
0.0056798
0.0056677
0.0056548
0.005641
0.0056266
0.0056111
0.005595
0.0055781
0.0055603
0.0055416
0.0055223
0.0055021
0.005481
0.0054592
0.0054366
0.0054131
0.0053889
0.0053638
0.0053379
0.0053113
0.0052839
0.0052556
0.0052266
0.0051967
0.0051661
0.0051347
0.0051026
0.0050695
0.0050358
0.0050013
0.0049661
0.00493
0.0048931
0.0048557
0.0048173
0.0047782
0.0047385
0.0046979
0.0046566
0.0046147
0.0045719
0.0045285
0.0044844
0.0044395
0.0043939
0.0043477
0.0043008
0.0042532
0.0042049
0.0041559
0.0041063
0.0040561
0.0040051
0.0039536
0.0039014
0.0038487
0.0037952
0.0037411
0.0036866
0.0036313
0.0035755
0.0035191
0.0034622
0.0034046
0.0033466
0.003288
0.0032289
0.0031692
0.0031091
0.0030483
0.0029872
0.0029255
0.0028634
0.0028008
0.0027378
0.0026742
0.0026103
0.0025459
0.0024812
0.0024159
0.0023504
0.0022844
0.002218
0.0021513
0.0020843
0.0020168
0.0019491
0.0018811
0.0018127
0.001744
0.001675
0.0016059
0.0015363
0.0014665
0.0013966
0.0013264
0.0012559
0.0011852
0.0011144
0.0010434
0.0009722
0.0009008
0.0008293
0.0007576
0.0006859
0.000614
0.000542
0.0004699
0.0003977
0.0003255
0.0002532
0.000181
0.0001085
3.62e-05
-3.62e-05
-0.0001085
-0.000181
-0.0002532
-0.0003255
-0.0003977
-0.0004699
-0.000542
-0.000614
-0.0006859
-0.0007576
-0.0008293
-0.0009008
-0.0009722
-0.0010434
-0.0011144
-0.0011852
-0.0012559
-0.0013264
-0.0013966
-0.0014665
-0.0015363
-0.0016059
-0.001675
-0.001744
-0.0018127
-0.0018811
-0.0019491
-0.0020168
-0.0020843
-0.0021513
-0.002218
-0.0022844
-0.0023504
-0.0024159
-0.0024812
-0.0025459
-0.0026103
-0.0026742
-0.0027378
-0.0028008
-0.0028634
-0.0029255
-0.0029872
-0.0030483
-0.0031091
-0.0031692
-0.0032289
-0.003288
-0.0033466
-0.0034046
-0.0034622
-0.0035191
-0.0035755
-0.0036313
-0.0036866
-0.0037411
-0.0037952
-0.0038487
-0.0039014
-0.0039536
-0.0040051
-0.0040561
-0.0041063
-0.0041559
-0.0042049
-0.0042532
-0.0043008
-0.0043477
-0.0043939
-0.0044395
-0.0044844
-0.0045285
-0.0045719
-0.0046147
-0.0046566
-0.0046979
-0.0047385
-0.0047782
-0.0048173
-0.0048557
-0.0048931
-0.00493
-0.0049661
-0.0050013
-0.0050358
-0.0050695
-0.0051026
-0.0051347
-0.0051661
-0.0051967
-0.0052266
-0.0052556
-0.0052839
-0.0053113
-0.0053379
-0.0053638
-0.0053889
-0.0054131
-0.0054366
-0.0054592
-0.005481
-0.0055021
-0.0055223
-0.0055416
-0.0055603
-0.0055781
-0.005595
-0.0056111
-0.0056266
-0.005641
-0.0056548
-0.0056677
-0.0056798
-0.0056911
-0.0057016
-0.0057113
-0.0057201
-0.0057283
-0.0057355
-0.005742
-0.0057476
-0.0057526
-0.0057566
-0.0057599
-0.0057625
-0.0057642
-0.0057651
-0.0057653
-0.0057647
-0.0057633
-0.0057611
-0.0057583
-0.0057546
-0.0057501
-0.005745
-0.005739
-0.0057324
-0.005725
-0.0057168
-0.0057079
-0.0056984
-0.005688
-0.005677
-0.0056652
-0.0056528
-0.0056396
-0.0056259
-0.0056113
-0.0055961
-0.0055802
-0.0055637
-0.0055464
-0.0055287
-0.0055101
-0.005491
-0.0054712
-0.0054507
-0.0054298
-0.0054081
-0.0053859
-0.005363
-0.0053395
-0.0053156
-0.005291
-0.0052657
-0.0052401
-0.0052138
-0.0051869
-0.0051596
-0.0051317
-0.0051032
-0.0050744
-0.0050449
-0.005015
-0.0049846
-0.0049537
-0.0049223
-0.0048905
-0.0048582
-0.0048255
-0.0047923
-0.0047588
-0.0047248
-0.0046903
-0.0046556
-0.0046203
-0.0045848
-0.0045488
-0.0045125
-0.0044759
-0.0044388
-0.0044015
-0.0043638
-0.0043259
-0.0042875
-0.0042489
-0.0042101
-0.0041709
-0.0041315
-0.0040918
-0.0040518
-0.0040117
-0.0039712
-0.0039306
-0.0038898
-0.0038487
-0.0038075
-0.003766
-0.0037244
-0.0036827
-0.0036407
-0.0035987
-0.0035564
-0.0035141
-0.0034717
-0.003429
-0.0033864
-0.0033437
-0.0033008
-0.0032578
-0.0032149
-0.0031718
-0.0031288
-0.0030856
-0.0030425
-0.0029994
-0.0029561
-0.002913
-0.0028697
-0.0028267
-0.0027834
-0.0027404
-0.0026973
-0.0026544
-0.0026113
-0.0025685
-0.0025256
-0.002483
-0.0024403
-0.0023977
-0.0023553
-0.002313
-0.0022708
-0.0022287
-0.0021868
-0.002145
-0.0021034
-0.0020619
-0.0020206
0.0019795
0.0019385
0.0018977
0.0018572
0.0018168
0.0017767
0.0017367
0.001697
0.0016575
0.0016183
0.0015792
0.0015405
0.0015019
0.0014637
0.0014257
0.001388
0.0013505
0.0013133
0.0012765
0.0012399
0.0012036
0.0011676
0.0011319
0.0010966
0.0010615
0.0010267
0.0009924
0.0009582
0.0009246
0.0008911
0.000858
0.0008253
0.000793
0.0007609
0.0007293
0.000698
0.000667
0.0006365
0.0006062
0.0005765
0.0005469
0.0005179
0.0004892
0.0004609
0.000433
0.0004054
0.0003782
0.0003515
0.0003251
0.0002992
0.0002735
0.0002484
0.0002236
0.0001992
0.0001753
0.0001517
0.0001285
0.0001057
8.33e-05
6.14e-05
3.99e-05
1.87e-05
-2.1e-06
-2.24e-05
-4.23e-05
-6.18e-05
-8.09e-05
-9.97e-05
-0.000118
-0.0001358
-0.0001534
-0.0001704
-0.0001872
-0.0002034
-0.0002194
-0.0002348
-0.0002499
-0.0002646
-0.0002789
-0.0002929
-0.0003063
-0.0003195
-0.0003322
-0.0003446
-0.0003565
-0.0003682
-0.0003793
-0.0003902
-0.0004007
-0.0004107
-0.0004205
-0.0004298
-0.0004388
-0.0004474
-0.0004557
-0.0004637
-0.0004712
-0.0004784
-0.0004852
-0.0004918
-0.000498
-0.0005039
-0.0005093
-0.0005146
-0.0005194
-0.000524
-0.0005282
-0.0005321
-0.0005357
-0.0005391
-0.000542
-0.0005447
-0.0005472
-0.0005493
-0.0005511
-0.0005526
-0.000554
-0.0005549
-0.0005557
-0.0005561
-0.0005564
-0.0005564
0
-0.000556
-0.0005555
-0.0005548
-0.0005537
-0.0005525
-0.000551
-0.0005493
-0.0005475
-0.0005453
-0.0005429
-0.0005405
-0.0005377
-0.0005348
-0.0005317
-0.0005283
-0.0005249
-0.0005213
-0.0005174
-0.0005135
-0.0005093
-0.000505
-0.0005005
-0.000496
-0.0004912
-0.0004864
-0.0004813
-0.0004763
-0.000471
-0.0004656
-0.0004601
-0.0004546
-0.0004489
-0.0004431
-0.0004373
-0.0004312
-0.0004253
-0.0004191
-0.0004129
-0.0004067
-0.0004003
-0.0003939
-0.0003875
-0.000381
-0.0003745
-0.0003679
-0.0003612
-0.0003547
-0.0003479
-0.0003412
-0.0003345
-0.0003277
-0.000321
-0.0003143
-0.0003074
-0.0003007
-0.0002939
-0.0002872
-0.0002804
-0.0002737
-0.000267
-0.0002603
-0.0002537
-0.000247
-0.0002404
-0.0002338
-0.0002274
-0.0002208
-0.0002145
-0.000208
-0.0002017
-0.0001955
-0.0001893
-0.0001831
-0.000177
-0.000171
-0.0001651
-0.0001592
-0.0001534
-0.0001477
-0.0001421
-0.0001366
-0.0001311
-0.0001257
-0.0001204
-0.0001153
-0.0001102
-0.0001052
-0.0001002
-9.56e-05
-9.08e-05
-8.62e-05
-8.18e-05
-7.74e-05
-7.31e-05
-6.9e-05
-6.5e-05
-6.1e-05
-5.73e-05
-5.36e-05
-5e-05
-4.65e-05
-4.32e-05
-4e-05
-3.69e-05
-3.4e-05
-3.11e-05
-2.84e-05
-2.57e-05
-2.34e-05
-2.09e-05
-1.88e-05
-1.66e-05
-1.47e-05
-1.28e-05
-1.11e-05
-9.5e-06
-8e-06
-6.7e-06
-5.5e-06
-4.3e-06
-3.4e-06
-2.6e-06
-1.8e-06
-1.2e-06
-8e-07
-3e-07
-2e-07
0
0
19

shape_id 2
num_samples 1020
0.5
0
0
246
-0.5
0
0
498
0.5
0
0
246
-0.5
0
0
18

