# Pulseq sequence file
# Created by PyPulseq

[VERSION]
major 1
minor 3
revision 1post1

[DEFINITIONS]
Total duration 2.87638 
FOV 1 1 0.008 
Name gre 

# Format of blocks:
#  #  D RF  GX  GY  GZ ADC EXT
[BLOCKS]
  1  0  1   0   0   0  0  0
  2  1  0   0   0   0  0  0
  3  0  2   0   0   0  0  0
  4  2  0   1   0   0  0  0
  5  0  3   0   0   0  0  0
  6  0  0   3   2   0  0  0
  7  0  0   4   0   0  1  0
  8  0  0   3   5   0  0  0
  9  0  3   0   0   0  0  0
 10  0  0   3   6   0  0  0
 11  0  0   4   0   0  1  0
 12  0  0   3   7   0  0  0
 13  0  3   0   0   0  0  0
 14  0  0   3   8   0  0  0
 15  0  0   4   0   0  1  0
 16  0  0   3   9   0  0  0
 17  0  3   0   0   0  0  0
 18  0  0   3  10   0  0  0
 19  0  0   4   0   0  1  0
 20  0  0   3  11   0  0  0
 21  0  3   0   0   0  0  0
 22  0  0   3  12   0  0  0
 23  0  0   4   0   0  1  0
 24  0  0   3  13   0  0  0
 25  0  3   0   0   0  0  0
 26  0  0   3  14   0  0  0
 27  0  0   4   0   0  1  0
 28  0  0   3  15   0  0  0
 29  0  3   0   0   0  0  0
 30  0  0   3  16   0  0  0
 31  0  0   4   0   0  1  0
 32  0  0   3  17   0  0  0
 33  0  3   0   0   0  0  0
 34  0  0   3  18   0  0  0
 35  0  0   4   0   0  1  0
 36  0  0   3  19   0  0  0
 37  0  3   0   0   0  0  0
 38  0  0   3  20   0  0  0
 39  0  0   4   0   0  1  0
 40  0  0   3  21   0  0  0
 41  0  3   0   0   0  0  0
 42  0  0   3  22   0  0  0
 43  0  0   4   0   0  1  0
 44  0  0   3  23   0  0  0
 45  0  3   0   0   0  0  0
 46  0  0   3  24   0  0  0
 47  0  0   4   0   0  1  0
 48  0  0   3  25   0  0  0
 49  0  3   0   0   0  0  0
 50  0  0   3  26   0  0  0
 51  0  0   4   0   0  1  0
 52  0  0   3  27   0  0  0
 53  0  3   0   0   0  0  0
 54  0  0   3  28   0  0  0
 55  0  0   4   0   0  1  0
 56  0  0   3  29   0  0  0
 57  0  3   0   0   0  0  0
 58  0  0   3  30   0  0  0
 59  0  0   4   0   0  1  0
 60  0  0   3  31   0  0  0
 61  0  3   0   0   0  0  0
 62  0  0   3  32   0  0  0
 63  0  0   4   0   0  1  0
 64  0  0   3  33   0  0  0
 65  0  3   0   0   0  0  0
 66  0  0   3  34   0  0  0
 67  0  0   4   0   0  1  0
 68  0  0   3  35   0  0  0
 69  0  3   0   0   0  0  0
 70  0  0   3  36   0  0  0
 71  0  0   4   0   0  1  0
 72  0  0   3  37   0  0  0
 73  0  3   0   0   0  0  0
 74  0  0   3  38   0  0  0
 75  0  0   4   0   0  1  0
 76  0  0   3  39   0  0  0
 77  0  3   0   0   0  0  0
 78  0  0   3  40   0  0  0
 79  0  0   4   0   0  1  0
 80  0  0   3  41   0  0  0
 81  0  3   0   0   0  0  0
 82  0  0   3  42   0  0  0
 83  0  0   4   0   0  1  0
 84  0  0   3  43   0  0  0
 85  0  3   0   0   0  0  0
 86  0  0   3  44   0  0  0
 87  0  0   4   0   0  1  0
 88  0  0   3  45   0  0  0
 89  0  3   0   0   0  0  0
 90  0  0   3  46   0  0  0
 91  0  0   4   0   0  1  0
 92  0  0   3  47   0  0  0
 93  0  3   0   0   0  0  0
 94  0  0   3  48   0  0  0
 95  0  0   4   0   0  1  0
 96  0  0   3  49   0  0  0
 97  0  3   0   0   0  0  0
 98  0  0   3  50   0  0  0
 99  0  0   4   0   0  1  0
100  0  0   3  51   0  0  0
101  0  3   0   0   0  0  0
102  0  0   3  52   0  0  0
103  0  0   4   0   0  1  0
104  0  0   3  53   0  0  0
105  0  3   0   0   0  0  0
106  0  0   3  54   0  0  0
107  0  0   4   0   0  1  0
108  0  0   3  55   0  0  0
109  0  3   0   0   0  0  0
110  0  0   3  56   0  0  0
111  0  0   4   0   0  1  0
112  0  0   3  57   0  0  0
113  0  3   0   0   0  0  0
114  0  0   3  58   0  0  0
115  0  0   4   0   0  1  0
116  0  0   3  59   0  0  0
117  0  3   0   0   0  0  0
118  0  0   3  60   0  0  0
119  0  0   4   0   0  1  0
120  0  0   3  61   0  0  0
121  0  3   0   0   0  0  0
122  0  0   3  62   0  0  0
123  0  0   4   0   0  1  0
124  0  0   3  63   0  0  0
125  0  3   0   0   0  0  0
126  0  0   3  64   0  0  0
127  0  0   4   0   0  1  0
128  0  0   3  65   0  0  0
129  0  3   0   0   0  0  0
130  0  0   3  66   0  0  0
131  0  0   4   0   0  1  0
132  0  0   3  67   0  0  0
133  0  3   0   0   0  0  0
134  0  0   3  68   0  0  0
135  0  0   4   0   0  1  0
136  0  0   3  68   0  0  0
137  0  3   0   0   0  0  0
138  0  0   3  67   0  0  0
139  0  0   4   0   0  1  0
140  0  0   3  66   0  0  0
141  0  3   0   0   0  0  0
142  0  0   3  65   0  0  0
143  0  0   4   0   0  1  0
144  0  0   3  64   0  0  0
145  0  3   0   0   0  0  0
146  0  0   3  63   0  0  0
147  0  0   4   0   0  1  0
148  0  0   3  62   0  0  0
149  0  3   0   0   0  0  0
150  0  0   3  61   0  0  0
151  0  0   4   0   0  1  0
152  0  0   3  60   0  0  0
153  0  3   0   0   0  0  0
154  0  0   3  59   0  0  0
155  0  0   4   0   0  1  0
156  0  0   3  58   0  0  0
157  0  3   0   0   0  0  0
158  0  0   3  57   0  0  0
159  0  0   4   0   0  1  0
160  0  0   3  56   0  0  0
161  0  3   0   0   0  0  0
162  0  0   3  55   0  0  0
163  0  0   4   0   0  1  0
164  0  0   3  54   0  0  0
165  0  3   0   0   0  0  0
166  0  0   3  53   0  0  0
167  0  0   4   0   0  1  0
168  0  0   3  52   0  0  0
169  0  3   0   0   0  0  0
170  0  0   3  51   0  0  0
171  0  0   4   0   0  1  0
172  0  0   3  50   0  0  0
173  0  3   0   0   0  0  0
174  0  0   3  49   0  0  0
175  0  0   4   0   0  1  0
176  0  0   3  48   0  0  0
177  0  3   0   0   0  0  0
178  0  0   3  47   0  0  0
179  0  0   4   0   0  1  0
180  0  0   3  46   0  0  0
181  0  3   0   0   0  0  0
182  0  0   3  45   0  0  0
183  0  0   4   0   0  1  0
184  0  0   3  44   0  0  0
185  0  3   0   0   0  0  0
186  0  0   3  43   0  0  0
187  0  0   4   0   0  1  0
188  0  0   3  42   0  0  0
189  0  3   0   0   0  0  0
190  0  0   3  41   0  0  0
191  0  0   4   0   0  1  0
192  0  0   3  40   0  0  0
193  0  3   0   0   0  0  0
194  0  0   3  39   0  0  0
195  0  0   4   0   0  1  0
196  0  0   3  38   0  0  0
197  0  3   0   0   0  0  0
198  0  0   3  37   0  0  0
199  0  0   4   0   0  1  0
200  0  0   3  36   0  0  0
201  0  3   0   0   0  0  0
202  0  0   3  35   0  0  0
203  0  0   4   0   0  1  0
204  0  0   3  34   0  0  0
205  0  3   0   0   0  0  0
206  0  0   3  33   0  0  0
207  0  0   4   0   0  1  0
208  0  0   3  32   0  0  0
209  0  3   0   0   0  0  0
210  0  0   3  31   0  0  0
211  0  0   4   0   0  1  0
212  0  0   3  30   0  0  0
213  0  3   0   0   0  0  0
214  0  0   3  29   0  0  0
215  0  0   4   0   0  1  0
216  0  0   3  28   0  0  0
217  0  3   0   0   0  0  0
218  0  0   3  27   0  0  0
219  0  0   4   0   0  1  0
220  0  0   3  26   0  0  0
221  0  3   0   0   0  0  0
222  0  0   3  25   0  0  0
223  0  0   4   0   0  1  0
224  0  0   3  24   0  0  0
225  0  3   0   0   0  0  0
226  0  0   3  23   0  0  0
227  0  0   4   0   0  1  0
228  0  0   3  22   0  0  0
229  0  3   0   0   0  0  0
230  0  0   3  21   0  0  0
231  0  0   4   0   0  1  0
232  0  0   3  20   0  0  0
233  0  3   0   0   0  0  0
234  0  0   3  19   0  0  0
235  0  0   4   0   0  1  0
236  0  0   3  18   0  0  0
237  0  3   0   0   0  0  0
238  0  0   3  17   0  0  0
239  0  0   4   0   0  1  0
240  0  0   3  16   0  0  0
241  0  3   0   0   0  0  0
242  0  0   3  15   0  0  0
243  0  0   4   0   0  1  0
244  0  0   3  14   0  0  0
245  0  3   0   0   0  0  0
246  0  0   3  13   0  0  0
247  0  0   4   0   0  1  0
248  0  0   3  12   0  0  0
249  0  3   0   0   0  0  0
250  0  0   3  11   0  0  0
251  0  0   4   0   0  1  0
252  0  0   3  10   0  0  0
253  0  3   0   0   0  0  0
254  0  0   3   9   0  0  0
255  0  0   4   0   0  1  0
256  0  0   3   8   0  0  0
257  0  3   0   0   0  0  0
258  0  0   3   7   0  0  0
259  0  0   4   0   0  1  0
260  0  0   3   6   0  0  0

# Format of RF events:
# id amplitude mag_id phase_id delay freq phase
# ..        Hz   ....     ....    us   Hz   rad
[RF]
1          500 1 2 100 0 0
2      1974.91 3 4 160 0 1.5708
3      3949.82 3 4 160 0 0

# Format of trapezoid gradients:
# id amplitude rise flat fall delay
# ..      Hz/m   us   us   us    us
[TRAP]
 1       138894  30  440  30   0
 2     -66666.7  20  460  20   0
 3        68000  20  460  20   0
 4        64000  20 1000  20   0
 5      66666.7  20  460  20   0
 6     -63265.3  10  480  10   0
 7      63265.3  10  480  10   0
 8     -61224.5  10  480  10   0
 9      61224.5  10  480  10   0
10     -59183.7  10  480  10   0
11      59183.7  10  480  10   0
12     -57142.9  10  480  10   0
13      57142.9  10  480  10   0
14       -55102  10  480  10   0
15        55102  10  480  10   0
16     -53061.2  10  480  10   0
17      53061.2  10  480  10   0
18     -51020.4  10  480  10   0
19      51020.4  10  480  10   0
20     -48979.6  10  480  10   0
21      48979.6  10  480  10   0
22     -46938.8  10  480  10   0
23      46938.8  10  480  10   0
24       -44898  10  480  10   0
25        44898  10  480  10   0
26     -42857.1  10  480  10   0
27      42857.1  10  480  10   0
28     -40816.3  10  480  10   0
29      40816.3  10  480  10   0
30     -38775.5  10  480  10   0
31      38775.5  10  480  10   0
32     -36734.7  10  480  10   0
33      36734.7  10  480  10   0
34     -34693.9  10  480  10   0
35      34693.9  10  480  10   0
36     -32653.1  10  480  10   0
37      32653.1  10  480  10   0
38     -30612.2  10  480  10   0
39      30612.2  10  480  10   0
40     -28571.4  10  480  10   0
41      28571.4  10  480  10   0
42     -26530.6  10  480  10   0
43      26530.6  10  480  10   0
44     -24489.8  10  480  10   0
45      24489.8  10  480  10   0
46       -22449  10  480  10   0
47        22449  10  480  10   0
48     -20408.2  10  480  10   0
49      20408.2  10  480  10   0
50     -18367.3  10  480  10   0
51      18367.3  10  480  10   0
52     -16326.5  10  480  10   0
53      16326.5  10  480  10   0
54     -14285.7  10  480  10   0
55      14285.7  10  480  10   0
56     -12244.9  10  480  10   0
57      12244.9  10  480  10   0
58     -10204.1  10  480  10   0
59      10204.1  10  480  10   0
60     -8163.27  10  480  10   0
61      8163.27  10  480  10   0
62     -6122.45  10  480  10   0
63      6122.45  10  480  10   0
64     -4081.63  10  480  10   0
65      4081.63  10  480  10   0
66     -2040.82  10  480  10   0
67      2040.82  10  480  10   0
68            0  10  480  10   0

# Format of ADC events:
# id num dwell delay freq phase
# ..  ..    ns    us   Hz   rad
[ADC]
1 64 15625 20 0 1.5708

# Format of delays:
# id delay (us)
[DELAYS]
1 2700000
2 160

# Sequence Shapes
[SHAPES]

shape_id 1
num_samples 1020
1
0
0
997
-1
0
0
17

shape_id 2
num_samples 1020
0
0
1018

shape_id 3
num_samples 520
2e-07
1.1e-06
3e-06
6e-06
9.8e-06
1.47e-05
2.06e-05
2.75e-05
3.54e-05
4.43e-05
5.41e-05
6.51e-05
7.69e-05
8.97e-05
0.0001036
0.0001183
0.000134
0.0001505
0.000168
0.0001864
0.0002054
0.0002255
0.0002461
0.0002677
0.0002898
0.0003126
0.0003361
0.0003601
0.0003848
0.0004097
0.0004353
0.0004612
0.0004874
0.000514
0.0005407
0.0005676
0.0005946
0.0006217
0.0006487
0.0006757
0.0007026
0.0007291
0.0007555
0.0007814
0.000807
0.000832
0.0008565
0.0008804
0.0009035
0.0009257
0.0009473
0.0009677
0.0009872
0.0010055
0.0010228
0.0010387
0.0010532
0.0010665
0.0010782
0.0010882
0.0010968
0.0011035
0.0011085
0.0011115
0.0011128
0.0011118
0.0011089
0.0011037
0.0010965
0.0010867
0.0010748
0.0010603
0.0010434
0.0010239
0.0010019
0.000977
0.0009496
0.0009194
0.0008862
0.0008503
0.0008114
0.0007695
0.0007247
0.0006768
0.0006258
0.0005718
0.0005145
0.0004542
0.0003906
0.0003238
0.0002538
0.0001806
0.0001041
2.45e-05
-5.86e-05
-0.0001447
-0.0002342
-0.000327
-0.0004228
-0.0005219
-0.0006243
-0.0007297
-0.0008384
-0.0009501
-0.0010648
-0.0011827
-0.0013035
-0.0014273
-0.0015539
-0.0016833
-0.0018157
-0.0019506
-0.0020882
-0.0022285
-0.0023712
-0.0025164
-0.0026638
-0.0028137
-0.0029656
-0.0031197
-0.0032758
-0.0034337
-0.0035935
-0.0037549
-0.003918
0.0040825
0.0042484
0.0044155
0.0045838
0.004753
0.0049233
0.0050941
0.0052657
0.0054377
0.0056101
0.0057827
0.0059555
0.0061281
0.0063006
0.0064727
0.0066445
0.0068154
0.0069858
0.0071551
0.0073234
0.0074904
0.0076562
0.0078204
0.0079829
0.0081436
0.0083024
0.008459
0.0086134
0.0087653
0.0089147
0.0090613
0.0092051
0.0093459
0.0094836
0.0096178
0.0097487
0.009876
0.0099996
0.0101193
0.0102349
0.0103465
0.0104539
0.0105567
0.0106551
0.0107489
0.0108379
0.0109219
0.0110011
0.0110751
0.0111439
0.0112074
0.0112655
0.011318
0.011365
0.0114063
0.0114418
0.0114714
0.0114951
0.0115129
0.0115244
0.01153
0.0115293
0.0115224
0.0115092
0.0114896
0.0114638
0.0114314
0.0113927
0.0113475
0.0112958
0.0112377
0.0111731
0.0111019
0.0110244
0.0109402
0.0108497
0.0107527
0.0106492
0.0105395
0.0104233
0.0103008
0.0101721
0.0100371
0.0098961
0.0097488
0.0095955
0.0094364
0.0092713
0.0091004
0.0089239
0.0087416
0.008554
0.0083608
0.0081624
0.0079587
0.0077501
0.0075363
0.0073179
0.0070946
0.0068668
0.0066346
0.0063981
0.0061574
0.0059127
0.0056642
0.005412
0.0051562
0.0048971
0.0046348
0.0043693
0.0041011
0.0038302
0.0035567
0.0032809
0.0030028
0.002723
0.0024411
0.0021578
0.001873
0.0015869
0.0012999
0.0010119
0.0007232
0.0004342
0.0001447
-0.0001447
-0.0004342
-0.0007232
-0.0010119
-0.0012999
-0.0015869
-0.001873
-0.0021578
-0.0024411
-0.002723
-0.0030028
-0.0032809
-0.0035567
-0.0038302
-0.0041011
-0.0043693
-0.0046348
-0.0048971
-0.0051562
-0.005412
-0.0056642
-0.0059127
-0.0061574
-0.0063981
-0.0066346
-0.0068668
-0.0070946
-0.0073179
-0.0075363
-0.0077501
-0.0079587
-0.0081624
-0.0083608
-0.008554
-0.0087416
-0.0089239
-0.0091004
-0.0092713
-0.0094364
-0.0095955
-0.0097488
-0.0098961
-0.0100371
-0.0101721
-0.0103008
-0.0104233
-0.0105395
-0.0106492
-0.0107527
-0.0108497
-0.0109402
-0.0110244
-0.0111019
-0.0111731
-0.0112377
-0.0112958
-0.0113475
-0.0113927
-0.0114314
-0.0114638
-0.0114896
-0.0115092
-0.0115224
-0.0115293
-0.01153
-0.0115244
-0.0115129
-0.0114951
-0.0114714
-0.0114418
-0.0114063
-0.011365
-0.011318
-0.0112655
-0.0112074
-0.0111439
-0.0110751
-0.0110011
-0.0109219
-0.0108379
-0.0107489
-0.0106551
-0.0105567
-0.0104539
-0.0103465
-0.0102349
-0.0101193
-0.0099996
-0.009876
-0.0097487
-0.0096178
-0.0094836
-0.0093459
-0.0092051
-0.0090613
-0.0089147
-0.0087653
-0.0086134
-0.008459
-0.0083024
-0.0081436
-0.0079829
-0.0078204
-0.0076562
-0.0074904
-0.0073234
-0.0071551
-0.0069858
-0.0068154
-0.0066445
-0.0064727
-0.0063006
-0.0061281
-0.0059555
-0.0057827
-0.0056101
-0.0054377
-0.0052657
-0.0050941
-0.0049233
-0.004753
-0.0045838
-0.0044155
-0.0042484
-0.0040825
0.003918
0.0037549
0.0035935
0.0034337
0.0032758
0.0031197
0.0029656
0.0028137
0.0026638
0.0025164
0.0023712
0.0022285
0.0020882
0.0019506
0.0018157
0.0016833
0.0015539
0.0014273
0.0013035
0.0011827
0.0010648
0.0009501
0.0008384
0.0007297
0.0006243
0.0005219
0.0004228
0.000327
0.0002342
0.0001447
5.86e-05
-2.45e-05
-0.0001041
-0.0001806
-0.0002538
-0.0003238
-0.0003906
-0.0004542
-0.0005145
-0.0005718
-0.0006258
-0.0006768
-0.0007247
-0.0007695
-0.0008114
-0.0008503
-0.0008862
-0.0009194
-0.0009496
-0.000977
-0.0010019
-0.0010239
-0.0010434
-0.0010603
-0.0010748
-0.0010867
-0.0010965
-0.0011037
-0.0011089
-0.0011118
-0.0011128
-0.0011115
-0.0011085
-0.0011035
-0.0010968
-0.0010882
-0.0010782
-0.0010665
-0.0010532
-0.0010387
-0.0010228
-0.0010055
-0.0009872
-0.0009677
-0.0009473
-0.0009257
-0.0009035
-0.0008804
-0.0008565
-0.000832
-0.000807
-0.0007814
-0.0007555
-0.0007291
-0.0007026
-0.0006757
-0.0006487
-0.0006217
-0.0005946
-0.0005676
-0.0005407
-0.000514
-0.0004874
-0.0004612
-0.0004353
-0.0004097
-0.0003848
-0.0003601
-0.0003361
-0.0003126
-0.0002898
-0.0002677
-0.0002461
-0.0002255
-0.0002054
-0.0001864
-0.000168
-0.0001505
-0.000134
-0.0001183
-0.0001036
-8.97e-05
-7.69e-05
-6.51e-05
-5.41e-05
-4.43e-05
-3.54e-05
-2.75e-05
-2.06e-05
-1.47e-05
-9.8e-06
-6e-06
-3e-06
-1.1e-06
-2e-07
0
0
18

shape_id 4
num_samples 520
0.5
0
0
121
-0.5
0
0
248
0.5
0
0
121
-0.5
0
0
18

