# Pulseq sequence file
# Created by PyPulseq

[VERSION]
major 1
minor 3
revision 1post1

[DEFINITIONS]
Total duration 0.46236 
FOV 1 1 0.008 
Name gre 

# Format of blocks:
#  #  D RF  GX  GY  GZ ADC EXT
[BLOCKS]
  1  0  1   0   0   0  0  0
  2  1  0   0   0   0  0  0
  3  0  2   0   0   0  0  0
  4  0  0   1   2   0  0  0
  5  0  0   3   0   0  1  0
  6  0  0   1   4   0  0  0
  7  0  3   0   0   0  0  0
  8  0  0   1   5   0  0  0
  9  0  0   3   0   0  2  0
 10  0  0   1   6   0  0  0
 11  0  4   0   0   0  0  0
 12  0  0   1   7   0  0  0
 13  0  0   3   0   0  3  0
 14  0  0   1   8   0  0  0
 15  0  5   0   0   0  0  0
 16  0  0   1   9   0  0  0
 17  0  0   3   0   0  4  0
 18  0  0   1  10   0  0  0
 19  0  6   0   0   0  0  0
 20  0  0   1  11   0  0  0
 21  0  0   3   0   0  5  0
 22  0  0   1  12   0  0  0
 23  0  7   0   0   0  0  0
 24  0  0   1  13   0  0  0
 25  0  0   3   0   0  6  0
 26  0  0   1  14   0  0  0
 27  0  8   0   0   0  0  0
 28  0  0   1  15   0  0  0
 29  0  0   3   0   0  7  0
 30  0  0   1  16   0  0  0
 31  0  9   0   0   0  0  0
 32  0  0   1  17   0  0  0
 33  0  0   3   0   0  8  0
 34  0  0   1  18   0  0  0
 35  0 10   0   0   0  0  0
 36  0  0   1  19   0  0  0
 37  0  0   3   0   0  9  0
 38  0  0   1  20   0  0  0
 39  0 11   0   0   0  0  0
 40  0  0   1  21   0  0  0
 41  0  0   3   0   0 10  0
 42  0  0   1  22   0  0  0
 43  0 12   0   0   0  0  0
 44  0  0   1  23   0  0  0
 45  0  0   3   0   0 11  0
 46  0  0   1  24   0  0  0
 47  0 13   0   0   0  0  0
 48  0  0   1  25   0  0  0
 49  0  0   3   0   0 12  0
 50  0  0   1  26   0  0  0
 51  0 14   0   0   0  0  0
 52  0  0   1  27   0  0  0
 53  0  0   3   0   0 13  0
 54  0  0   1  28   0  0  0
 55  0 15   0   0   0  0  0
 56  0  0   1  29   0  0  0
 57  0  0   3   0   0 14  0
 58  0  0   1  30   0  0  0
 59  0 16   0   0   0  0  0
 60  0  0   1  31   0  0  0
 61  0  0   3   0   0 15  0
 62  0  0   1  32   0  0  0
 63  0 17   0   0   0  0  0
 64  0  0   1  33   0  0  0
 65  0  0   3   0   0 16  0
 66  0  0   1  34   0  0  0
 67  0 18   0   0   0  0  0
 68  0  0   1  35   0  0  0
 69  0  0   3   0   0 17  0
 70  0  0   1  36   0  0  0
 71  0 19   0   0   0  0  0
 72  0  0   1  37   0  0  0
 73  0  0   3   0   0 18  0
 74  0  0   1  38   0  0  0
 75  0 20   0   0   0  0  0
 76  0  0   1  39   0  0  0
 77  0  0   3   0   0 19  0
 78  0  0   1  40   0  0  0
 79  0 21   0   0   0  0  0
 80  0  0   1  41   0  0  0
 81  0  0   3   0   0 20  0
 82  0  0   1  42   0  0  0
 83  0 22   0   0   0  0  0
 84  0  0   1  43   0  0  0
 85  0  0   3   0   0 21  0
 86  0  0   1  44   0  0  0
 87  0 23   0   0   0  0  0
 88  0  0   1  45   0  0  0
 89  0  0   3   0   0 22  0
 90  0  0   1  46   0  0  0
 91  0 24   0   0   0  0  0
 92  0  0   1  47   0  0  0
 93  0  0   3   0   0 23  0
 94  0  0   1  48   0  0  0
 95  0 25   0   0   0  0  0
 96  0  0   1  49   0  0  0
 97  0  0   3   0   0 24  0
 98  0  0   1  50   0  0  0
 99  0 26   0   0   0  0  0
100  0  0   1  51   0  0  0
101  0  0   3   0   0 25  0
102  0  0   1  52   0  0  0
103  0 27   0   0   0  0  0
104  0  0   1  53   0  0  0
105  0  0   3   0   0 26  0
106  0  0   1  54   0  0  0
107  0 28   0   0   0  0  0
108  0  0   1  55   0  0  0
109  0  0   3   0   0 27  0
110  0  0   1  56   0  0  0
111  0 29   0   0   0  0  0
112  0  0   1  57   0  0  0
113  0  0   3   0   0 28  0
114  0  0   1  58   0  0  0
115  0 30   0   0   0  0  0
116  0  0   1  59   0  0  0
117  0  0   3   0   0 29  0
118  0  0   1  60   0  0  0
119  0 31   0   0   0  0  0
120  0  0   1  61   0  0  0
121  0  0   3   0   0 30  0
122  0  0   1  62   0  0  0
123  0 32   0   0   0  0  0
124  0  0   1  63   0  0  0
125  0  0   3   0   0 31  0
126  0  0   1  64   0  0  0
127  0 33   0   0   0  0  0
128  0  0   1  65   0  0  0
129  0  0   3   0   0 32  0
130  0  0   1  66   0  0  0
131  0 34   0   0   0  0  0
132  0  0   1  67   0  0  0
133  0  0   3   0   0 33  0
134  0  0   1  67   0  0  0
135  0 35   0   0   0  0  0
136  0  0   1  66   0  0  0
137  0  0   3   0   0 34  0
138  0  0   1  65   0  0  0
139  0 36   0   0   0  0  0
140  0  0   1  64   0  0  0
141  0  0   3   0   0 35  0
142  0  0   1  63   0  0  0
143  0 37   0   0   0  0  0
144  0  0   1  62   0  0  0
145  0  0   3   0   0 36  0
146  0  0   1  61   0  0  0
147  0 38   0   0   0  0  0
148  0  0   1  60   0  0  0
149  0  0   3   0   0 37  0
150  0  0   1  59   0  0  0
151  0 39   0   0   0  0  0
152  0  0   1  58   0  0  0
153  0  0   3   0   0 38  0
154  0  0   1  57   0  0  0
155  0 40   0   0   0  0  0
156  0  0   1  56   0  0  0
157  0  0   3   0   0 39  0
158  0  0   1  55   0  0  0
159  0 41   0   0   0  0  0
160  0  0   1  54   0  0  0
161  0  0   3   0   0 40  0
162  0  0   1  53   0  0  0
163  0 42   0   0   0  0  0
164  0  0   1  52   0  0  0
165  0  0   3   0   0 41  0
166  0  0   1  51   0  0  0
167  0 43   0   0   0  0  0
168  0  0   1  50   0  0  0
169  0  0   3   0   0 42  0
170  0  0   1  49   0  0  0
171  0 44   0   0   0  0  0
172  0  0   1  48   0  0  0
173  0  0   3   0   0 43  0
174  0  0   1  47   0  0  0
175  0 45   0   0   0  0  0
176  0  0   1  46   0  0  0
177  0  0   3   0   0 44  0
178  0  0   1  45   0  0  0
179  0 46   0   0   0  0  0
180  0  0   1  44   0  0  0
181  0  0   3   0   0 45  0
182  0  0   1  43   0  0  0
183  0 47   0   0   0  0  0
184  0  0   1  42   0  0  0
185  0  0   3   0   0 46  0
186  0  0   1  41   0  0  0
187  0 48   0   0   0  0  0
188  0  0   1  40   0  0  0
189  0  0   3   0   0 47  0
190  0  0   1  39   0  0  0
191  0 49   0   0   0  0  0
192  0  0   1  38   0  0  0
193  0  0   3   0   0 48  0
194  0  0   1  37   0  0  0
195  0 50   0   0   0  0  0
196  0  0   1  36   0  0  0
197  0  0   3   0   0 49  0
198  0  0   1  35   0  0  0
199  0 51   0   0   0  0  0
200  0  0   1  34   0  0  0
201  0  0   3   0   0 50  0
202  0  0   1  33   0  0  0
203  0 52   0   0   0  0  0
204  0  0   1  32   0  0  0
205  0  0   3   0   0 51  0
206  0  0   1  31   0  0  0
207  0 53   0   0   0  0  0
208  0  0   1  30   0  0  0
209  0  0   3   0   0 52  0
210  0  0   1  29   0  0  0
211  0 54   0   0   0  0  0
212  0  0   1  28   0  0  0
213  0  0   3   0   0 53  0
214  0  0   1  27   0  0  0
215  0 55   0   0   0  0  0
216  0  0   1  26   0  0  0
217  0  0   3   0   0 54  0
218  0  0   1  25   0  0  0
219  0 56   0   0   0  0  0
220  0  0   1  24   0  0  0
221  0  0   3   0   0 55  0
222  0  0   1  23   0  0  0
223  0 57   0   0   0  0  0
224  0  0   1  22   0  0  0
225  0  0   3   0   0 56  0
226  0  0   1  21   0  0  0
227  0 58   0   0   0  0  0
228  0  0   1  20   0  0  0
229  0  0   3   0   0 57  0
230  0  0   1  19   0  0  0
231  0 59   0   0   0  0  0
232  0  0   1  18   0  0  0
233  0  0   3   0   0 58  0
234  0  0   1  17   0  0  0
235  0 60   0   0   0  0  0
236  0  0   1  16   0  0  0
237  0  0   3   0   0 59  0
238  0  0   1  15   0  0  0
239  0 61   0   0   0  0  0
240  0  0   1  14   0  0  0
241  0  0   3   0   0 60  0
242  0  0   1  13   0  0  0
243  0 62   0   0   0  0  0
244  0  0   1  12   0  0  0
245  0  0   3   0   0 61  0
246  0  0   1  11   0  0  0
247  0 63   0   0   0  0  0
248  0  0   1  10   0  0  0
249  0  0   3   0   0 62  0
250  0  0   1   9   0  0  0
251  0 64   0   0   0  0  0
252  0  0   1   8   0  0  0
253  0  0   3   0   0 63  0
254  0  0   1   7   0  0  0
255  0 65   0   0   0  0  0
256  0  0   1   6   0  0  0
257  0  0   3   0   0 64  0
258  0  0   1   5   0  0  0

# Format of RF events:
# id amplitude mag_id phase_id delay freq phase
# ..        Hz   ....     ....    us   Hz   rad
[RF]
1      109.717 1 2 100 0 3.14159
2      219.435 1 2 100 0 0
3      219.435 1 2 100 0 3.14159
4      219.435 1 2 100 0 6.28319
5      219.435 1 2 100 0 9.42478
6      219.435 1 2 100 0 12.5664
7      219.435 1 2 100 0 15.708
8      219.435 1 2 100 0 18.8496
9      219.435 1 2 100 0 21.9911
10      219.435 1 2 100 0 25.1327
11      219.435 1 2 100 0 28.2743
12      219.435 1 2 100 0 31.4159
13      219.435 1 2 100 0 34.5575
14      219.435 1 2 100 0 37.6991
15      219.435 1 2 100 0 40.8407
16      219.435 1 2 100 0 43.9823
17      219.435 1 2 100 0 47.1239
18      219.435 1 2 100 0 50.2655
19      219.435 1 2 100 0 53.4071
20      219.435 1 2 100 0 56.5487
21      219.435 1 2 100 0 59.6903
22      219.435 1 2 100 0 62.8319
23      219.435 1 2 100 0 65.9734
24      219.435 1 2 100 0 69.115
25      219.435 1 2 100 0 72.2566
26      219.435 1 2 100 0 75.3982
27      219.435 1 2 100 0 78.5398
28      219.435 1 2 100 0 81.6814
29      219.435 1 2 100 0 84.823
30      219.435 1 2 100 0 87.9646
31      219.435 1 2 100 0 91.1062
32      219.435 1 2 100 0 94.2478
33      219.435 1 2 100 0 97.3894
34      219.435 1 2 100 0 100.531
35      219.435 1 2 100 0 103.673
36      219.435 1 2 100 0 106.814
37      219.435 1 2 100 0 109.956
38      219.435 1 2 100 0 113.097
39      219.435 1 2 100 0 116.239
40      219.435 1 2 100 0 119.381
41      219.435 1 2 100 0 122.522
42      219.435 1 2 100 0 125.664
43      219.435 1 2 100 0 128.805
44      219.435 1 2 100 0 131.947
45      219.435 1 2 100 0 135.088
46      219.435 1 2 100 0 138.23
47      219.435 1 2 100 0 141.372
48      219.435 1 2 100 0 144.513
49      219.435 1 2 100 0 147.655
50      219.435 1 2 100 0 150.796
51      219.435 1 2 100 0 153.938
52      219.435 1 2 100 0 157.08
53      219.435 1 2 100 0 160.221
54      219.435 1 2 100 0 163.363
55      219.435 1 2 100 0 166.504
56      219.435 1 2 100 0 169.646
57      219.435 1 2 100 0 172.788
58      219.435 1 2 100 0 175.929
59      219.435 1 2 100 0 179.071
60      219.435 1 2 100 0 182.212
61      219.435 1 2 100 0 185.354
62      219.435 1 2 100 0 188.496
63      219.435 1 2 100 0 191.637
64      219.435 1 2 100 0 194.779
65      219.435 1 2 100 0 197.92

# Format of trapezoid gradients:
# id amplitude rise flat fall delay
# ..      Hz/m   us   us   us    us
[TRAP]
 1       -32404  10  980  10   0
 2     -32323.2  10  980  10   0
 3        16000  10 4000  10   0
 4      32323.2  10  980  10   0
 5     -31313.1  10  980  10   0
 6      31313.1  10  980  10   0
 7       -30303  10  980  10   0
 8        30303  10  980  10   0
 9     -29292.9  10  980  10   0
10      29292.9  10  980  10   0
11     -28282.8  10  980  10   0
12      28282.8  10  980  10   0
13     -27272.7  10  980  10   0
14      27272.7  10  980  10   0
15     -26262.6  10  980  10   0
16      26262.6  10  980  10   0
17     -25252.5  10  980  10   0
18      25252.5  10  980  10   0
19     -24242.4  10  980  10   0
20      24242.4  10  980  10   0
21     -23232.3  10  980  10   0
22      23232.3  10  980  10   0
23     -22222.2  10  980  10   0
24      22222.2  10  980  10   0
25     -21212.1  10  980  10   0
26      21212.1  10  980  10   0
27       -20202  10  980  10   0
28        20202  10  980  10   0
29     -19191.9  10  980  10   0
30      19191.9  10  980  10   0
31     -18181.8  10  980  10   0
32      18181.8  10  980  10   0
33     -17171.7  10  980  10   0
34      17171.7  10  980  10   0
35     -16161.6  10  980  10   0
36      16161.6  10  980  10   0
37     -15151.5  10  980  10   0
38      15151.5  10  980  10   0
39     -14141.4  10  980  10   0
40      14141.4  10  980  10   0
41     -13131.3  10  980  10   0
42      13131.3  10  980  10   0
43     -12121.2  10  980  10   0
44      12121.2  10  980  10   0
45     -11111.1  10  980  10   0
46      11111.1  10  980  10   0
47       -10101  10  980  10   0
48        10101  10  980  10   0
49     -9090.91  10  980  10   0
50      9090.91  10  980  10   0
51     -8080.81  10  980  10   0
52      8080.81  10  980  10   0
53     -7070.71  10  980  10   0
54      7070.71  10  980  10   0
55     -6060.61  10  980  10   0
56      6060.61  10  980  10   0
57     -5050.51  10  980  10   0
58      5050.51  10  980  10   0
59      -4040.4  10  980  10   0
60       4040.4  10  980  10   0
61      -3030.3  10  980  10   0
62       3030.3  10  980  10   0
63      -2020.2  10  980  10   0
64       2020.2  10  980  10   0
65      -1010.1  10  980  10   0
66       1010.1  10  980  10   0
67            0  10  980  10   0

# Format of ADC events:
# id num dwell delay freq phase
# ..  ..    ns    us   Hz   rad
[ADC]
1 64 62500 20 0 0
2 64 62500 20 0 3.14159
3 64 62500 20 0 6.28319
4 64 62500 20 0 9.42478
5 64 62500 20 0 12.5664
6 64 62500 20 0 15.708
7 64 62500 20 0 18.8496
8 64 62500 20 0 21.9911
9 64 62500 20 0 25.1327
10 64 62500 20 0 28.2743
11 64 62500 20 0 31.4159
12 64 62500 20 0 34.5575
13 64 62500 20 0 37.6991
14 64 62500 20 0 40.8407
15 64 62500 20 0 43.9823
16 64 62500 20 0 47.1239
17 64 62500 20 0 50.2655
18 64 62500 20 0 53.4071
19 64 62500 20 0 56.5487
20 64 62500 20 0 59.6903
21 64 62500 20 0 62.8319
22 64 62500 20 0 65.9734
23 64 62500 20 0 69.115
24 64 62500 20 0 72.2566
25 64 62500 20 0 75.3982
26 64 62500 20 0 78.5398
27 64 62500 20 0 81.6814
28 64 62500 20 0 84.823
29 64 62500 20 0 87.9646
30 64 62500 20 0 91.1062
31 64 62500 20 0 94.2478
32 64 62500 20 0 97.3894
33 64 62500 20 0 100.531
34 64 62500 20 0 103.673
35 64 62500 20 0 106.814
36 64 62500 20 0 109.956
37 64 62500 20 0 113.097
38 64 62500 20 0 116.239
39 64 62500 20 0 119.381
40 64 62500 20 0 122.522
41 64 62500 20 0 125.664
42 64 62500 20 0 128.805
43 64 62500 20 0 131.947
44 64 62500 20 0 135.088
45 64 62500 20 0 138.23
46 64 62500 20 0 141.372
47 64 62500 20 0 144.513
48 64 62500 20 0 147.655
49 64 62500 20 0 150.796
50 64 62500 20 0 153.938
51 64 62500 20 0 157.08
52 64 62500 20 0 160.221
53 64 62500 20 0 163.363
54 64 62500 20 0 166.504
55 64 62500 20 0 169.646
56 64 62500 20 0 172.788
57 64 62500 20 0 175.929
58 64 62500 20 0 179.071
59 64 62500 20 0 182.212
60 64 62500 20 0 185.354
61 64 62500 20 0 188.496
62 64 62500 20 0 191.637
63 64 62500 20 0 194.779
64 64 62500 20 0 197.92

# Format of delays:
# id delay (us)
[DELAYS]
1 3000

# Sequence Shapes
[SHAPES]

shape_id 1
num_samples 1020
0
2e-07
3e-07
8e-07
1.2e-06
1.8e-06
2.6e-06
3.4e-06
4.3e-06
5.5e-06
6.7e-06
8e-06
9.5e-06
1.11e-05
1.28e-05
1.47e-05
1.66e-05
1.88e-05
2.09e-05
2.34e-05
2.57e-05
2.84e-05
3.11e-05
3.4e-05
3.69e-05
4e-05
4.32e-05
4.65e-05
5e-05
5.36e-05
5.73e-05
6.1e-05
6.5e-05
6.9e-05
7.31e-05
7.74e-05
8.18e-05
8.62e-05
9.08e-05
9.56e-05
0.0001002
0.0001052
0.0001102
0.0001153
0.0001204
0.0001257
0.0001311
0.0001366
0.0001421
0.0001477
0.0001534
0.0001592
0.0001651
0.000171
0.000177
0.0001831
0.0001893
0.0001955
0.0002017
0.000208
0.0002145
0.0002208
0.0002274
0.0002338
0.0002404
0.000247
0.0002537
0.0002603
0.000267
0.0002737
0.0002804
0.0002872
0.0002939
0.0003007
0.0003074
0.0003143
0.000321
0.0003277
0.0003345
0.0003412
0.0003479
0.0003547
0.0003612
0.0003679
0.0003745
0.000381
0.0003875
0.0003939
0.0004003
0.0004067
0.0004129
0.0004191
0.0004253
0.0004312
0.0004373
0.0004431
0.0004489
0.0004546
0.0004601
0.0004656
0.000471
0.0004763
0.0004813
0.0004864
0.0004912
0.000496
0.0005005
0.000505
0.0005093
0.0005135
0.0005174
0.0005213
0.0005249
0.0005283
0.0005317
0.0005348
0.0005377
0.0005405
0.0005429
0.0005453
0.0005475
0.0005493
0.000551
0.0005525
0.0005537
0.0005548
0.0005555
0.000556
0.0005564
0.0005564
0
0.0005561
0.0005557
0.0005549
0.000554
0.0005526
0.0005511
0.0005493
0.0005472
0.0005447
0.000542
0.0005391
0.0005357
0.0005321
0.0005282
0.000524
0.0005194
0.0005146
0.0005093
0.0005039
0.000498
0.0004918
0.0004852
0.0004784
0.0004712
0.0004637
0.0004557
0.0004474
0.0004388
0.0004298
0.0004205
0.0004107
0.0004007
0.0003902
0.0003793
0.0003682
0.0003565
0.0003446
0.0003322
0.0003195
0.0003063
0.0002929
0.0002789
0.0002646
0.0002499
0.0002348
0.0002194
0.0002034
0.0001872
0.0001704
0.0001534
0.0001358
0.000118
9.97e-05
8.09e-05
6.18e-05
4.23e-05
2.24e-05
2.1e-06
-1.87e-05
-3.99e-05
-6.14e-05
-8.33e-05
-0.0001057
-0.0001285
-0.0001517
-0.0001753
-0.0001992
-0.0002236
-0.0002484
-0.0002735
-0.0002992
-0.0003251
-0.0003515
-0.0003782
-0.0004054
-0.000433
-0.0004609
-0.0004892
-0.0005179
-0.0005469
-0.0005765
-0.0006062
-0.0006365
-0.000667
-0.000698
-0.0007293
-0.0007609
-0.000793
-0.0008253
-0.000858
-0.0008911
-0.0009246
-0.0009582
-0.0009924
-0.0010267
-0.0010615
-0.0010966
-0.0011319
-0.0011676
-0.0012036
-0.0012399
-0.0012765
-0.0013133
-0.0013505
-0.001388
-0.0014257
-0.0014637
-0.0015019
-0.0015405
-0.0015792
-0.0016183
-0.0016575
-0.001697
-0.0017367
-0.0017767
-0.0018168
-0.0018572
-0.0018977
-0.0019385
-0.0019795
0.0020206
0.0020619
0.0021034
0.002145
0.0021868
0.0022287
0.0022708
0.002313
0.0023553
0.0023977
0.0024403
0.002483
0.0025256
0.0025685
0.0026113
0.0026544
0.0026973
0.0027404
0.0027834
0.0028267
0.0028697
0.002913
0.0029561
0.0029994
0.0030425
0.0030856
0.0031288
0.0031718
0.0032149
0.0032578
0.0033008
0.0033437
0.0033864
0.003429
0.0034717
0.0035141
0.0035564
0.0035987
0.0036407
0.0036827
0.0037244
0.003766
0.0038075
0.0038487
0.0038898
0.0039306
0.0039712
0.0040117
0.0040518
0.0040918
0.0041315
0.0041709
0.0042101
0.0042489
0.0042875
0.0043259
0.0043638
0.0044015
0.0044388
0.0044759
0.0045125
0.0045488
0.0045848
0.0046203
0.0046556
0.0046903
0.0047248
0.0047588
0.0047923
0.0048255
0.0048582
0.0048905
0.0049223
0.0049537
0.0049846
0.005015
0.0050449
0.0050744
0.0051032
0.0051317
0.0051596
0.0051869
0.0052138
0.0052401
0.0052657
0.005291
0.0053156
0.0053395
0.005363
0.0053859
0.0054081
0.0054298
0.0054507
0.0054712
0.005491
0.0055101
0.0055287
0.0055464
0.0055637
0.0055802
0.0055961
0.0056113
0.0056259
0.0056396
0.0056528
0.0056652
0.005677
0.005688
0.0056984
0.0057079
0.0057168
0.005725
0.0057324
0.005739
0.005745
0.0057501
0.0057546
0.0057583
0.0057611
0.0057633
0.0057647
0.0057653
0.0057651
0.0057642
0.0057625
0.0057599
0.0057566
0.0057526
0.0057476
0.005742
0.0057355
0.0057283
0.0057201
0.0057113
0.0057016
0.0056911
0.0056798
0.0056677
0.0056548
0.005641
0.0056266
0.0056111
0.005595
0.0055781
0.0055603
0.0055416
0.0055223
0.0055021
0.005481
0.0054592
0.0054366
0.0054131
0.0053889
0.0053638
0.0053379
0.0053113
0.0052839
0.0052556
0.0052266
0.0051967
0.0051661
0.0051347
0.0051026
0.0050695
0.0050358
0.0050013
0.0049661
0.00493
0.0048931
0.0048557
0.0048173
0.0047782
0.0047385
0.0046979
0.0046566
0.0046147
0.0045719
0.0045285
0.0044844
0.0044395
0.0043939
0.0043477
0.0043008
0.0042532
0.0042049
0.0041559
0.0041063
0.0040561
0.0040051
0.0039536
0.0039014
0.0038487
0.0037952
0.0037411
0.0036866
0.0036313
0.0035755
0.0035191
0.0034622
0.0034046
0.0033466
0.003288
0.0032289
0.0031692
0.0031091
0.0030483
0.0029872
0.0029255
0.0028634
0.0028008
0.0027378
0.0026742
0.0026103
0.0025459
0.0024812
0.0024159
0.0023504
0.0022844
0.002218
0.0021513
0.0020843
0.0020168
0.0019491
0.0018811
0.0018127
0.001744
0.001675
0.0016059
0.0015363
0.0014665
0.0013966
0.0013264
0.0012559
0.0011852
0.0011144
0.0010434
0.0009722
0.0009008
0.0008293
0.0007576
0.0006859
0.000614
0.000542
0.0004699
0.0003977
0.0003255
0.0002532
0.000181
0.0001085
3.62e-05
-3.62e-05
-0.0001085
-0.000181
-0.0002532
-0.0003255
-0.0003977
-0.0004699
-0.000542
-0.000614
-0.0006859
-0.0007576
-0.0008293
-0.0009008
-0.0009722
-0.0010434
-0.0011144
-0.0011852
-0.0012559
-0.0013264
-0.0013966
-0.0014665
-0.0015363
-0.0016059
-0.001675
-0.001744
-0.0018127
-0.0018811
-0.0019491
-0.0020168
-0.0020843
-0.0021513
-0.002218
-0.0022844
-0.0023504
-0.0024159
-0.0024812
-0.0025459
-0.0026103
-0.0026742
-0.0027378
-0.0028008
-0.0028634
-0.0029255
-0.0029872
-0.0030483
-0.0031091
-0.0031692
-0.0032289
-0.003288
-0.0033466
-0.0034046
-0.0034622
-0.0035191
-0.0035755
-0.0036313
-0.0036866
-0.0037411
-0.0037952
-0.0038487
-0.0039014
-0.0039536
-0.0040051
-0.0040561
-0.0041063
-0.0041559
-0.0042049
-0.0042532
-0.0043008
-0.0043477
-0.0043939
-0.0044395
-0.0044844
-0.0045285
-0.0045719
-0.0046147
-0.0046566
-0.0046979
-0.0047385
-0.0047782
-0.0048173
-0.0048557
-0.0048931
-0.00493
-0.0049661
-0.0050013
-0.0050358
-0.0050695
-0.0051026
-0.0051347
-0.0051661
-0.0051967
-0.0052266
-0.0052556
-0.0052839
-0.0053113
-0.0053379
-0.0053638
-0.0053889
-0.0054131
-0.0054366
-0.0054592
-0.005481
-0.0055021
-0.0055223
-0.0055416
-0.0055603
-0.0055781
-0.005595
-0.0056111
-0.0056266
-0.005641
-0.0056548
-0.0056677
-0.0056798
-0.0056911
-0.0057016
-0.0057113
-0.0057201
-0.0057283
-0.0057355
-0.005742
-0.0057476
-0.0057526
-0.0057566
-0.0057599
-0.0057625
-0.0057642
-0.0057651
-0.0057653
-0.0057647
-0.0057633
-0.0057611
-0.0057583
-0.0057546
-0.0057501
-0.005745
-0.005739
-0.0057324
-0.005725
-0.0057168
-0.0057079
-0.0056984
-0.005688
-0.005677
-0.0056652
-0.0056528
-0.0056396
-0.0056259
-0.0056113
-0.0055961
-0.0055802
-0.0055637
-0.0055464
-0.0055287
-0.0055101
-0.005491
-0.0054712
-0.0054507
-0.0054298
-0.0054081
-0.0053859
-0.005363
-0.0053395
-0.0053156
-0.005291
-0.0052657
-0.0052401
-0.0052138
-0.0051869
-0.0051596
-0.0051317
-0.0051032
-0.0050744
-0.0050449
-0.005015
-0.0049846
-0.0049537
-0.0049223
-0.0048905
-0.0048582
-0.0048255
-0.0047923
-0.0047588
-0.0047248
-0.0046903
-0.0046556
-0.0046203
-0.0045848
-0.0045488
-0.0045125
-0.0044759
-0.0044388
-0.0044015
-0.0043638
-0.0043259
-0.0042875
-0.0042489
-0.0042101
-0.0041709
-0.0041315
-0.0040918
-0.0040518
-0.0040117
-0.0039712
-0.0039306
-0.0038898
-0.0038487
-0.0038075
-0.003766
-0.0037244
-0.0036827
-0.0036407
-0.0035987
-0.0035564
-0.0035141
-0.0034717
-0.003429
-0.0033864
-0.0033437
-0.0033008
-0.0032578
-0.0032149
-0.0031718
-0.0031288
-0.0030856
-0.0030425
-0.0029994
-0.0029561
-0.002913
-0.0028697
-0.0028267
-0.0027834
-0.0027404
-0.0026973
-0.0026544
-0.0026113
-0.0025685
-0.0025256
-0.002483
-0.0024403
-0.0023977
-0.0023553
-0.002313
-0.0022708
-0.0022287
-0.0021868
-0.002145
-0.0021034
-0.0020619
-0.0020206
0.0019795
0.0019385
0.0018977
0.0018572
0.0018168
0.0017767
0.0017367
0.001697
0.0016575
0.0016183
0.0015792
0.0015405
0.0015019
0.0014637
0.0014257
0.001388
0.0013505
0.0013133
0.0012765
0.0012399
0.0012036
0.0011676
0.0011319
0.0010966
0.0010615
0.0010267
0.0009924
0.0009582
0.0009246
0.0008911
0.000858
0.0008253
0.000793
0.0007609
0.0007293
0.000698
0.000667
0.0006365
0.0006062
0.0005765
0.0005469
0.0005179
0.0004892
0.0004609
0.000433
0.0004054
0.0003782
0.0003515
0.0003251
0.0002992
0.0002735
0.0002484
0.0002236
0.0001992
0.0001753
0.0001517
0.0001285
0.0001057
8.33e-05
6.14e-05
3.99e-05
1.87e-05
-2.1e-06
-2.24e-05
-4.23e-05
-6.18e-05
-8.09e-05
-9.97e-05
-0.000118
-0.0001358
-0.0001534
-0.0001704
-0.0001872
-0.0002034
-0.0002194
-0.0002348
-0.0002499
-0.0002646
-0.0002789
-0.0002929
-0.0003063
-0.0003195
-0.0003322
-0.0003446
-0.0003565
-0.0003682
-0.0003793
-0.0003902
-0.0004007
-0.0004107
-0.0004205
-0.0004298
-0.0004388
-0.0004474
-0.0004557
-0.0004637
-0.0004712
-0.0004784
-0.0004852
-0.0004918
-0.000498
-0.0005039
-0.0005093
-0.0005146
-0.0005194
-0.000524
-0.0005282
-0.0005321
-0.0005357
-0.0005391
-0.000542
-0.0005447
-0.0005472
-0.0005493
-0.0005511
-0.0005526
-0.000554
-0.0005549
-0.0005557
-0.0005561
-0.0005564
-0.0005564
0
-0.000556
-0.0005555
-0.0005548
-0.0005537
-0.0005525
-0.000551
-0.0005493
-0.0005475
-0.0005453
-0.0005429
-0.0005405
-0.0005377
-0.0005348
-0.0005317
-0.0005283
-0.0005249
-0.0005213
-0.0005174
-0.0005135
-0.0005093
-0.000505
-0.0005005
-0.000496
-0.0004912
-0.0004864
-0.0004813
-0.0004763
-0.000471
-0.0004656
-0.0004601
-0.0004546
-0.0004489
-0.0004431
-0.0004373
-0.0004312
-0.0004253
-0.0004191
-0.0004129
-0.0004067
-0.0004003
-0.0003939
-0.0003875
-0.000381
-0.0003745
-0.0003679
-0.0003612
-0.0003547
-0.0003479
-0.0003412
-0.0003345
-0.0003277
-0.000321
-0.0003143
-0.0003074
-0.0003007
-0.0002939
-0.0002872
-0.0002804
-0.0002737
-0.000267
-0.0002603
-0.0002537
-0.000247
-0.0002404
-0.0002338
-0.0002274
-0.0002208
-0.0002145
-0.000208
-0.0002017
-0.0001955
-0.0001893
-0.0001831
-0.000177
-0.000171
-0.0001651
-0.0001592
-0.0001534
-0.0001477
-0.0001421
-0.0001366
-0.0001311
-0.0001257
-0.0001204
-0.0001153
-0.0001102
-0.0001052
-0.0001002
-9.56e-05
-9.08e-05
-8.62e-05
-8.18e-05
-7.74e-05
-7.31e-05
-6.9e-05
-6.5e-05
-6.1e-05
-5.73e-05
-5.36e-05
-5e-05
-4.65e-05
-4.32e-05
-4e-05
-3.69e-05
-3.4e-05
-3.11e-05
-2.84e-05
-2.57e-05
-2.34e-05
-2.09e-05
-1.88e-05
-1.66e-05
-1.47e-05
-1.28e-05
-1.11e-05
-9.5e-06
-8e-06
-6.7e-06
-5.5e-06
-4.3e-06
-3.4e-06
-2.6e-06
-1.8e-06
-1.2e-06
-8e-07
-3e-07
-2e-07
0
0
19

shape_id 2
num_samples 1020
0.5
0
0
246
-0.5
0
0
498
0.5
0
0
246
-0.5
0
0
18

